8.308419999999999694e-01
8.364840000000000053e-01
8.300370000000000248e-01
8.332600000000000007e-01
8.340659999999999741e-01
8.316480000000000539e-01
8.324540000000000273e-01
8.340659999999999741e-01
8.380950000000000344e-01
8.372889999999999500e-01
8.340659999999999741e-01
8.372889999999999500e-01
8.348719999999999475e-01
8.380950000000000344e-01
8.340659999999999741e-01
8.356780000000000319e-01
8.372889999999999500e-01
8.332600000000000007e-01
8.364840000000000053e-01
8.340659999999999741e-01
8.332600000000000007e-01
8.372889999999999500e-01
8.364840000000000053e-01
8.364840000000000053e-01
8.348719999999999475e-01
8.340659999999999741e-01
8.364840000000000053e-01
8.316480000000000539e-01
8.340659999999999741e-01
8.372889999999999500e-01
8.348719999999999475e-01
8.324540000000000273e-01
8.340659999999999741e-01
8.372889999999999500e-01
8.340659999999999741e-01
8.372889999999999500e-01
8.340659999999999741e-01
8.348719999999999475e-01
8.340659999999999741e-01
8.340659999999999741e-01
8.324540000000000273e-01
8.316480000000000539e-01
8.252009999999999623e-01
8.316480000000000539e-01
8.356780000000000319e-01
8.340659999999999741e-01
8.340659999999999741e-01
8.324540000000000273e-01
8.308419999999999694e-01
8.316480000000000539e-01
8.348719999999999475e-01
8.372889999999999500e-01
8.340659999999999741e-01
8.348719999999999475e-01
8.356780000000000319e-01
8.356780000000000319e-01
8.389010000000000078e-01
8.348719999999999475e-01
8.340659999999999741e-01
8.372889999999999500e-01
8.348719999999999475e-01
8.348719999999999475e-01
8.348719999999999475e-01
8.340659999999999741e-01
8.340659999999999741e-01
8.356780000000000319e-01
8.332600000000000007e-01
8.380950000000000344e-01
8.477660000000000196e-01
8.405129999999999546e-01
8.380950000000000344e-01
8.405129999999999546e-01
8.372889999999999500e-01
8.348719999999999475e-01
8.340659999999999741e-01
8.372889999999999500e-01
8.356780000000000319e-01
8.372889999999999500e-01
8.356780000000000319e-01
8.389010000000000078e-01
8.348719999999999475e-01
8.372889999999999500e-01
8.380950000000000344e-01
8.380950000000000344e-01
8.372889999999999500e-01
8.380950000000000344e-01
8.372889999999999500e-01
8.421250000000000124e-01
8.405129999999999546e-01
8.413190000000000390e-01
8.405129999999999546e-01
8.380950000000000344e-01
8.413190000000000390e-01
8.405129999999999546e-01
8.421250000000000124e-01
8.397069999999999812e-01
8.243960000000000177e-01
8.364840000000000053e-01
8.380950000000000344e-01
8.340659999999999741e-01
8.389010000000000078e-01
8.332600000000000007e-01
8.340659999999999741e-01
8.348719999999999475e-01
8.316480000000000539e-01
8.324540000000000273e-01
8.364840000000000053e-01
8.308419999999999694e-01
8.356780000000000319e-01
8.372889999999999500e-01
8.340659999999999741e-01
8.332600000000000007e-01
8.356780000000000319e-01
8.340659999999999741e-01
8.348719999999999475e-01
8.397069999999999812e-01
8.348719999999999475e-01
8.340659999999999741e-01
8.356780000000000319e-01
8.316480000000000539e-01
8.340659999999999741e-01
8.364840000000000053e-01
8.413190000000000390e-01
8.413190000000000390e-01
8.501830000000000220e-01
8.550179999999999447e-01
8.614650000000000363e-01
8.638829999999999565e-01
8.703300000000000480e-01
8.791940000000000310e-01
8.791940000000000310e-01
8.856410000000000116e-01
8.856410000000000116e-01
8.880590000000000428e-01
8.832229999999999803e-01
8.791940000000000310e-01
8.791940000000000310e-01
8.662999999999999590e-01
8.453479999999999883e-01
8.171429999999999527e-01
7.784619999999999873e-01
7.671790000000000553e-01
7.784619999999999873e-01
7.671790000000000553e-01
7.623440000000000216e-01
7.567030000000000145e-01
7.510620000000000074e-01
7.486450000000000049e-01
7.567030000000000145e-01
7.655680000000000263e-01
7.728209999999999802e-01
7.792670000000000430e-01
7.841029999999999944e-01
7.897440000000000015e-01
7.945790000000000353e-01
8.066670000000000229e-01
8.106959999999999722e-01
8.147250000000000325e-01
8.219779999999999864e-01
8.268130000000000202e-01
8.292310000000000514e-01
8.292310000000000514e-01
8.372889999999999500e-01
8.372889999999999500e-01
8.380950000000000344e-01
8.372889999999999500e-01
8.332600000000000007e-01
8.397069999999999812e-01
8.372889999999999500e-01
8.405129999999999546e-01
8.429299999999999571e-01
8.413190000000000390e-01
8.405129999999999546e-01
8.429299999999999571e-01
8.453479999999999883e-01
8.445420000000000149e-01
8.437360000000000415e-01
8.405129999999999546e-01
8.461539999999999617e-01
8.405129999999999546e-01
8.405129999999999546e-01
8.445420000000000149e-01
8.461539999999999617e-01
8.461539999999999617e-01
8.501830000000000220e-01
8.469600000000000461e-01
8.485709999999999642e-01
8.477660000000000196e-01
8.469600000000000461e-01
8.485709999999999642e-01
8.509889999999999954e-01
8.534070000000000267e-01
8.485709999999999642e-01
8.485709999999999642e-01
8.509889999999999954e-01
8.477660000000000196e-01
8.526010000000000533e-01
8.485709999999999642e-01
8.509889999999999954e-01
8.469600000000000461e-01
8.493770000000000486e-01
8.517949999999999688e-01
8.501830000000000220e-01
8.501830000000000220e-01
8.550179999999999447e-01
8.534070000000000267e-01
8.534070000000000267e-01
8.534070000000000267e-01
8.566300000000000026e-01
8.542119999999999713e-01
8.582419999999999494e-01
8.606589999999999518e-01
8.598529999999999784e-01
8.630769999999999831e-01
8.630769999999999831e-01
8.654950000000000143e-01
8.638829999999999565e-01
8.630769999999999831e-01
8.646890000000000409e-01
8.703300000000000480e-01
8.743589999999999973e-01
8.727470000000000505e-01
8.719409999999999661e-01
8.751649999999999707e-01
8.775819999999999732e-01
8.759710000000000552e-01
8.775819999999999732e-01
8.816119999999999512e-01
8.808059999999999778e-01
8.791940000000000310e-01
8.800000000000000044e-01
8.808059999999999778e-01
8.856410000000000116e-01
8.856410000000000116e-01
8.864469999999999850e-01
8.840289999999999537e-01
8.904760000000000453e-01
8.896699999999999608e-01
8.856410000000000116e-01
8.896699999999999608e-01
8.912820000000000187e-01
8.888639999999999874e-01
8.888639999999999874e-01
8.888639999999999874e-01
8.880590000000000428e-01
8.920879999999999921e-01
8.848350000000000382e-01
8.872529999999999584e-01
8.840289999999999537e-01
8.824180000000000357e-01
8.824180000000000357e-01
8.783879999999999466e-01
8.783879999999999466e-01
8.743589999999999973e-01
8.735530000000000239e-01
8.719409999999999661e-01
8.646890000000000409e-01
8.622710000000000097e-01
8.638829999999999565e-01
8.590480000000000338e-01
8.574359999999999760e-01
8.542119999999999713e-01
8.493770000000000486e-01
8.469600000000000461e-01
8.485709999999999642e-01
8.437360000000000415e-01
8.437360000000000415e-01
8.445420000000000149e-01
8.445420000000000149e-01
8.413190000000000390e-01
8.445420000000000149e-01
8.453479999999999883e-01
8.405129999999999546e-01
8.405129999999999546e-01
8.372889999999999500e-01
8.356780000000000319e-01
8.372889999999999500e-01
8.380950000000000344e-01
8.397069999999999812e-01
8.340659999999999741e-01
8.380950000000000344e-01
8.348719999999999475e-01
8.348719999999999475e-01
8.372889999999999500e-01
8.405129999999999546e-01
8.356780000000000319e-01
8.397069999999999812e-01
8.405129999999999546e-01
8.372889999999999500e-01
8.372889999999999500e-01
8.340659999999999741e-01
8.364840000000000053e-01
8.372889999999999500e-01
8.348719999999999475e-01
8.372889999999999500e-01
8.380950000000000344e-01
8.389010000000000078e-01
8.372889999999999500e-01
8.397069999999999812e-01
8.356780000000000319e-01
8.340659999999999741e-01
8.340659999999999741e-01
8.356780000000000319e-01
8.380950000000000344e-01
8.372889999999999500e-01
8.356780000000000319e-01
8.340659999999999741e-01
8.356780000000000319e-01
8.389010000000000078e-01
8.356780000000000319e-01
8.340659999999999741e-01
8.389010000000000078e-01
8.332600000000000007e-01
8.340659999999999741e-01
8.364840000000000053e-01
8.324540000000000273e-01
8.324540000000000273e-01
8.348719999999999475e-01
8.356780000000000319e-01
8.356780000000000319e-01
8.340659999999999741e-01
8.372889999999999500e-01
8.389010000000000078e-01
8.364840000000000053e-01
8.372889999999999500e-01
8.380950000000000344e-01
8.397069999999999812e-01
8.364840000000000053e-01
8.356780000000000319e-01
8.389010000000000078e-01
8.372889999999999500e-01
8.380950000000000344e-01
8.372889999999999500e-01
8.356780000000000319e-01
8.356780000000000319e-01
8.364840000000000053e-01
8.340659999999999741e-01
8.364840000000000053e-01
8.380950000000000344e-01
8.372889999999999500e-01
8.364840000000000053e-01
8.348719999999999475e-01
8.372889999999999500e-01
8.372889999999999500e-01
8.372889999999999500e-01
8.372889999999999500e-01
8.380950000000000344e-01
8.340659999999999741e-01
8.348719999999999475e-01
8.308419999999999694e-01
8.324540000000000273e-01
8.380950000000000344e-01
8.380950000000000344e-01
8.405129999999999546e-01
8.324540000000000273e-01
8.372889999999999500e-01
8.364840000000000053e-01
8.372889999999999500e-01
8.397069999999999812e-01
8.380950000000000344e-01
8.340659999999999741e-01
8.380950000000000344e-01
8.332600000000000007e-01
8.364840000000000053e-01
8.284249999999999670e-01
8.340659999999999741e-01
8.348719999999999475e-01
8.348719999999999475e-01
8.348719999999999475e-01
8.380950000000000344e-01
8.372889999999999500e-01
8.348719999999999475e-01
8.348719999999999475e-01
8.372889999999999500e-01
8.340659999999999741e-01
8.356780000000000319e-01
8.380950000000000344e-01
8.316480000000000539e-01
8.324540000000000273e-01
8.324540000000000273e-01
8.332600000000000007e-01
8.316480000000000539e-01
8.356780000000000319e-01
8.356780000000000319e-01
8.340659999999999741e-01
8.332600000000000007e-01
8.340659999999999741e-01
8.356780000000000319e-01
8.324540000000000273e-01
8.340659999999999741e-01
8.340659999999999741e-01
8.340659999999999741e-01
8.276189999999999936e-01
8.340659999999999741e-01
8.316480000000000539e-01
8.308419999999999694e-01
8.356780000000000319e-01
8.348719999999999475e-01
8.364840000000000053e-01
8.340659999999999741e-01
8.364840000000000053e-01
8.340659999999999741e-01
8.340659999999999741e-01
8.340659999999999741e-01
8.364840000000000053e-01
8.397069999999999812e-01
8.389010000000000078e-01
8.380950000000000344e-01
8.380950000000000344e-01
8.397069999999999812e-01
8.380950000000000344e-01
8.397069999999999812e-01
8.372889999999999500e-01
8.405129999999999546e-01
8.364840000000000053e-01
8.413190000000000390e-01
8.380950000000000344e-01
8.372889999999999500e-01
8.389010000000000078e-01
8.429299999999999571e-01
8.397069999999999812e-01
8.405129999999999546e-01
8.437360000000000415e-01
8.332600000000000007e-01
8.421250000000000124e-01
8.380950000000000344e-01
8.413190000000000390e-01
8.372889999999999500e-01
8.405129999999999546e-01
8.397069999999999812e-01
8.397069999999999812e-01
8.340659999999999741e-01
8.356780000000000319e-01
8.397069999999999812e-01
8.340659999999999741e-01
8.364840000000000053e-01
8.340659999999999741e-01
8.364840000000000053e-01
8.324540000000000273e-01
8.356780000000000319e-01
8.340659999999999741e-01
8.389010000000000078e-01
8.405129999999999546e-01
8.356780000000000319e-01
8.276189999999999936e-01
8.308419999999999694e-01
8.413190000000000390e-01
8.356780000000000319e-01
8.276189999999999936e-01
8.348719999999999475e-01
8.332600000000000007e-01
8.356780000000000319e-01
8.332600000000000007e-01
8.380950000000000344e-01
8.356780000000000319e-01
8.405129999999999546e-01
8.324540000000000273e-01
8.453479999999999883e-01
8.517949999999999688e-01
8.566300000000000026e-01
8.622710000000000097e-01
8.687179999999999902e-01
8.759710000000000552e-01
8.791940000000000310e-01
8.848350000000000382e-01
8.864469999999999850e-01
8.824180000000000357e-01
8.808059999999999778e-01
8.840289999999999537e-01
8.800000000000000044e-01
8.638829999999999565e-01
8.405129999999999546e-01
8.115019999999999456e-01
7.849080000000000501e-01
7.760439999999999561e-01
7.792670000000000430e-01
7.800730000000000164e-01
7.720150000000000068e-01
7.655680000000000263e-01
7.591210000000000457e-01
7.607329999999999925e-01
7.639559999999999684e-01
7.744320000000000093e-01
7.800730000000000164e-01
7.841029999999999944e-01
7.865199999999999969e-01
7.897440000000000015e-01
7.969960000000000377e-01
8.042489999999999917e-01
8.115019999999999456e-01
8.163369999999999793e-01
8.219779999999999864e-01
8.276189999999999936e-01
8.292310000000000514e-01
8.292310000000000514e-01
8.316480000000000539e-01
8.348719999999999475e-01
8.356780000000000319e-01
8.348719999999999475e-01
8.389010000000000078e-01
8.445420000000000149e-01
8.413190000000000390e-01
8.364840000000000053e-01
8.389010000000000078e-01
8.429299999999999571e-01
8.413190000000000390e-01
8.429299999999999571e-01
8.445420000000000149e-01
8.445420000000000149e-01
8.477660000000000196e-01
8.429299999999999571e-01
8.469600000000000461e-01
8.437360000000000415e-01
8.437360000000000415e-01
8.461539999999999617e-01
8.469600000000000461e-01
8.429299999999999571e-01
8.477660000000000196e-01
8.461539999999999617e-01
8.453479999999999883e-01
8.509889999999999954e-01
8.493770000000000486e-01
8.509889999999999954e-01
8.485709999999999642e-01
8.517949999999999688e-01
8.501830000000000220e-01
8.493770000000000486e-01
8.526010000000000533e-01
8.534070000000000267e-01
8.477660000000000196e-01
8.558240000000000292e-01
8.534070000000000267e-01
8.550179999999999447e-01
8.558240000000000292e-01
8.566300000000000026e-01
8.526010000000000533e-01
8.574359999999999760e-01
8.534070000000000267e-01
8.590480000000000338e-01
8.582419999999999494e-01
8.566300000000000026e-01
8.364840000000000053e-01
8.598529999999999784e-01
8.598529999999999784e-01
8.606589999999999518e-01
8.598529999999999784e-01
8.654950000000000143e-01
8.622710000000000097e-01
8.671060000000000434e-01
8.662999999999999590e-01
8.671060000000000434e-01
8.662999999999999590e-01
8.679120000000000168e-01
8.687179999999999902e-01
8.695239999999999636e-01
8.719409999999999661e-01
8.767770000000000286e-01
8.791940000000000310e-01
8.775819999999999732e-01
8.735530000000000239e-01
8.767770000000000286e-01
8.791940000000000310e-01
8.775819999999999732e-01
8.816119999999999512e-01
8.808059999999999778e-01
8.832229999999999803e-01
8.856410000000000116e-01
8.880590000000000428e-01
8.864469999999999850e-01
8.872529999999999584e-01
8.840289999999999537e-01
8.896699999999999608e-01
8.888639999999999874e-01
8.896699999999999608e-01
8.928939999999999655e-01
8.888639999999999874e-01
8.896699999999999608e-01
8.888639999999999874e-01
8.896699999999999608e-01
8.920879999999999921e-01
8.864469999999999850e-01
8.848350000000000382e-01
8.856410000000000116e-01
8.824180000000000357e-01
8.775819999999999732e-01
8.791940000000000310e-01
8.759710000000000552e-01
8.695239999999999636e-01
8.719409999999999661e-01
8.598529999999999784e-01
8.630769999999999831e-01
8.582419999999999494e-01
8.590480000000000338e-01
8.566300000000000026e-01
8.542119999999999713e-01
8.542119999999999713e-01
8.211720000000000130e-01
8.477660000000000196e-01
8.453479999999999883e-01
8.437360000000000415e-01
8.405129999999999546e-01
8.429299999999999571e-01
8.372889999999999500e-01
8.405129999999999546e-01
8.340659999999999741e-01
8.380950000000000344e-01
8.372889999999999500e-01
8.380950000000000344e-01
8.477660000000000196e-01
8.364840000000000053e-01
8.348719999999999475e-01
8.324540000000000273e-01
8.348719999999999475e-01
8.340659999999999741e-01
8.356780000000000319e-01
8.364840000000000053e-01
8.324540000000000273e-01
8.372889999999999500e-01
8.340659999999999741e-01
8.348719999999999475e-01
8.348719999999999475e-01
8.348719999999999475e-01
8.348719999999999475e-01
8.316480000000000539e-01
8.364840000000000053e-01
8.308419999999999694e-01
8.276189999999999936e-01
8.348719999999999475e-01
8.356780000000000319e-01
8.308419999999999694e-01
8.332600000000000007e-01
8.356780000000000319e-01
8.316480000000000539e-01
8.372889999999999500e-01
8.372889999999999500e-01
8.348719999999999475e-01
8.324540000000000273e-01
8.276189999999999936e-01
8.332600000000000007e-01
8.316480000000000539e-01
8.308419999999999694e-01
8.332600000000000007e-01
8.380950000000000344e-01
8.356780000000000319e-01
8.348719999999999475e-01
8.364840000000000053e-01
8.356780000000000319e-01
8.348719999999999475e-01
8.308419999999999694e-01
8.348719999999999475e-01
8.316480000000000539e-01
8.324540000000000273e-01
8.380950000000000344e-01
8.348719999999999475e-01
8.356780000000000319e-01
8.356780000000000319e-01
8.348719999999999475e-01
8.348719999999999475e-01
8.356780000000000319e-01
8.324540000000000273e-01
8.348719999999999475e-01
8.413190000000000390e-01
8.364840000000000053e-01
8.316480000000000539e-01
8.340659999999999741e-01
8.340659999999999741e-01
8.364840000000000053e-01
8.389010000000000078e-01
8.397069999999999812e-01
8.340659999999999741e-01
8.380950000000000344e-01
8.356780000000000319e-01
8.340659999999999741e-01
8.372889999999999500e-01
8.356780000000000319e-01
8.380950000000000344e-01
8.380950000000000344e-01
8.372889999999999500e-01
8.372889999999999500e-01
8.356780000000000319e-01
8.340659999999999741e-01
8.372889999999999500e-01
8.324540000000000273e-01
8.364840000000000053e-01
8.356780000000000319e-01
8.364840000000000053e-01
8.356780000000000319e-01
8.372889999999999500e-01
8.356780000000000319e-01
8.364840000000000053e-01
8.380950000000000344e-01
8.380950000000000344e-01
8.397069999999999812e-01
8.389010000000000078e-01
8.340659999999999741e-01
8.340659999999999741e-01
8.356780000000000319e-01
8.380950000000000344e-01
8.372889999999999500e-01
8.332600000000000007e-01
8.316480000000000539e-01
8.364840000000000053e-01
8.332600000000000007e-01
8.340659999999999741e-01
8.356780000000000319e-01
8.340659999999999741e-01
8.324540000000000273e-01
8.380950000000000344e-01
8.380950000000000344e-01
8.340659999999999741e-01
8.364840000000000053e-01
8.340659999999999741e-01
8.364840000000000053e-01
8.372889999999999500e-01
8.340659999999999741e-01
8.340659999999999741e-01
8.380950000000000344e-01
8.356780000000000319e-01
8.364840000000000053e-01
8.405129999999999546e-01
8.356780000000000319e-01
8.389010000000000078e-01
8.356780000000000319e-01
8.364840000000000053e-01
8.356780000000000319e-01
8.340659999999999741e-01
8.340659999999999741e-01
8.340659999999999741e-01
8.372889999999999500e-01
8.364840000000000053e-01
8.340659999999999741e-01
8.356780000000000319e-01
8.372889999999999500e-01
8.348719999999999475e-01
8.380950000000000344e-01
8.380950000000000344e-01
8.364840000000000053e-01
8.356780000000000319e-01
8.380950000000000344e-01
8.348719999999999475e-01
8.477660000000000196e-01
8.324540000000000273e-01
8.348719999999999475e-01
8.332600000000000007e-01
8.348719999999999475e-01
8.356780000000000319e-01
8.348719999999999475e-01
8.372889999999999500e-01
8.364840000000000053e-01
8.316480000000000539e-01
8.340659999999999741e-01
8.348719999999999475e-01
8.364840000000000053e-01
8.372889999999999500e-01
8.405129999999999546e-01
8.340659999999999741e-01
8.340659999999999741e-01
8.340659999999999741e-01
8.356780000000000319e-01
8.364840000000000053e-01
8.356780000000000319e-01
8.324540000000000273e-01
8.348719999999999475e-01
8.364840000000000053e-01
8.348719999999999475e-01
8.405129999999999546e-01
8.364840000000000053e-01
8.380950000000000344e-01
8.332600000000000007e-01
8.324540000000000273e-01
8.389010000000000078e-01
8.389010000000000078e-01
8.340659999999999741e-01
8.380950000000000344e-01
8.340659999999999741e-01
8.348719999999999475e-01
8.316480000000000539e-01
8.340659999999999741e-01
8.340659999999999741e-01
8.356780000000000319e-01
8.397069999999999812e-01
8.380950000000000344e-01
8.397069999999999812e-01
8.340659999999999741e-01
8.389010000000000078e-01
8.372889999999999500e-01
8.372889999999999500e-01
8.380950000000000344e-01
8.397069999999999812e-01
8.389010000000000078e-01
8.421250000000000124e-01
8.421250000000000124e-01
8.372889999999999500e-01
8.397069999999999812e-01
8.380950000000000344e-01
8.421250000000000124e-01
8.380950000000000344e-01
8.413190000000000390e-01
8.340659999999999741e-01
8.380950000000000344e-01
8.380950000000000344e-01
8.356780000000000319e-01
8.437360000000000415e-01
8.397069999999999812e-01
8.380950000000000344e-01
8.413190000000000390e-01
8.413190000000000390e-01
8.348719999999999475e-01
8.372889999999999500e-01
8.389010000000000078e-01
8.389010000000000078e-01
8.324540000000000273e-01
8.372889999999999500e-01
8.380950000000000344e-01
8.372889999999999500e-01
8.316480000000000539e-01
8.348719999999999475e-01
8.348719999999999475e-01
8.356780000000000319e-01
8.308419999999999694e-01
8.308419999999999694e-01
8.316480000000000539e-01
8.340659999999999741e-01
8.292310000000000514e-01
8.340659999999999741e-01
8.356780000000000319e-01
8.284249999999999670e-01
8.348719999999999475e-01
8.348719999999999475e-01
8.324540000000000273e-01
8.300370000000000248e-01
8.316480000000000539e-01
8.332600000000000007e-01
8.308419999999999694e-01
8.332600000000000007e-01
8.332600000000000007e-01
8.332600000000000007e-01
8.324540000000000273e-01
8.372889999999999500e-01
8.429299999999999571e-01
8.437360000000000415e-01
8.509889999999999954e-01
8.574359999999999760e-01
8.630769999999999831e-01
8.695239999999999636e-01
8.751649999999999707e-01
8.816119999999999512e-01
8.864469999999999850e-01
8.848350000000000382e-01
8.848350000000000382e-01
8.735530000000000239e-01
8.775819999999999732e-01
8.662999999999999590e-01
8.509889999999999954e-01
8.211720000000000130e-01
7.961899999999999533e-01
7.720150000000000068e-01
7.663739999999999997e-01
7.671790000000000553e-01
7.663739999999999997e-01
7.591210000000000457e-01
7.534800000000000386e-01
7.502560000000000340e-01
7.510620000000000074e-01
7.534800000000000386e-01
7.663739999999999997e-01
7.728209999999999802e-01
7.744320000000000093e-01
7.800730000000000164e-01
7.897440000000000015e-01
7.986079999999999846e-01
8.050549999999999651e-01
8.058610000000000495e-01
8.163369999999999793e-01
8.219779999999999864e-01
8.227839999999999598e-01
8.292310000000000514e-01
8.276189999999999936e-01
8.324540000000000273e-01
8.356780000000000319e-01
8.356780000000000319e-01
8.348719999999999475e-01
8.308419999999999694e-01
8.372889999999999500e-01
8.356780000000000319e-01
8.380950000000000344e-01
8.380950000000000344e-01
8.413190000000000390e-01
8.405129999999999546e-01
8.372889999999999500e-01
8.421250000000000124e-01
8.405129999999999546e-01
8.405129999999999546e-01
8.445420000000000149e-01
8.389010000000000078e-01
8.364840000000000053e-01
8.405129999999999546e-01
8.429299999999999571e-01
8.429299999999999571e-01
8.477660000000000196e-01
8.477660000000000196e-01
8.469600000000000461e-01
8.469600000000000461e-01
8.485709999999999642e-01
8.469600000000000461e-01
8.493770000000000486e-01
8.469600000000000461e-01
8.453479999999999883e-01
8.485709999999999642e-01
8.501830000000000220e-01
8.469600000000000461e-01
8.534070000000000267e-01
8.517949999999999688e-01
8.534070000000000267e-01
8.517949999999999688e-01
8.534070000000000267e-01
8.534070000000000267e-01
8.534070000000000267e-01
8.509889999999999954e-01
8.558240000000000292e-01
8.517949999999999688e-01
8.542119999999999713e-01
8.566300000000000026e-01
8.582419999999999494e-01
8.542119999999999713e-01
8.606589999999999518e-01
8.582419999999999494e-01
8.622710000000000097e-01
8.574359999999999760e-01
8.646890000000000409e-01
8.638829999999999565e-01
8.630769999999999831e-01
8.654950000000000143e-01
8.671060000000000434e-01
8.671060000000000434e-01
8.687179999999999902e-01
8.703300000000000480e-01
8.695239999999999636e-01
8.751649999999999707e-01
8.751649999999999707e-01
8.735530000000000239e-01
8.759710000000000552e-01
8.759710000000000552e-01
8.783879999999999466e-01
8.775819999999999732e-01
8.808059999999999778e-01
8.808059999999999778e-01
8.840289999999999537e-01
8.840289999999999537e-01
8.832229999999999803e-01
8.848350000000000382e-01
8.856410000000000116e-01
8.832229999999999803e-01
8.896699999999999608e-01
8.872529999999999584e-01
8.864469999999999850e-01
8.888639999999999874e-01
8.896699999999999608e-01
8.888639999999999874e-01
8.888639999999999874e-01
8.856410000000000116e-01
8.840289999999999537e-01
8.856410000000000116e-01
8.856410000000000116e-01
8.856410000000000116e-01
8.832229999999999803e-01
8.808059999999999778e-01
8.791940000000000310e-01
8.791940000000000310e-01
8.751649999999999707e-01
8.735530000000000239e-01
8.703300000000000480e-01
8.703300000000000480e-01
8.654950000000000143e-01
8.654950000000000143e-01
8.622710000000000097e-01
8.598529999999999784e-01
8.517949999999999688e-01
8.526010000000000533e-01
8.501830000000000220e-01
8.469600000000000461e-01
8.477660000000000196e-01
8.445420000000000149e-01
8.437360000000000415e-01
8.413190000000000390e-01
8.413190000000000390e-01
8.397069999999999812e-01
8.413190000000000390e-01
8.389010000000000078e-01
8.380950000000000344e-01
8.324540000000000273e-01
8.501830000000000220e-01
8.453479999999999883e-01
8.380950000000000344e-01
8.389010000000000078e-01
8.348719999999999475e-01
8.340659999999999741e-01
8.332600000000000007e-01
8.356780000000000319e-01
8.348719999999999475e-01
8.340659999999999741e-01
8.380950000000000344e-01
8.348719999999999475e-01
8.372889999999999500e-01
8.380950000000000344e-01
8.348719999999999475e-01
8.372889999999999500e-01
8.340659999999999741e-01
8.389010000000000078e-01
8.364840000000000053e-01
8.340659999999999741e-01
8.356780000000000319e-01
8.348719999999999475e-01
8.260070000000000467e-01
8.348719999999999475e-01
8.348719999999999475e-01
8.340659999999999741e-01
8.364840000000000053e-01
8.340659999999999741e-01
8.364840000000000053e-01
8.340659999999999741e-01
8.372889999999999500e-01
8.348719999999999475e-01
8.348719999999999475e-01
8.340659999999999741e-01
8.308419999999999694e-01
8.316480000000000539e-01
8.380950000000000344e-01
8.405129999999999546e-01
8.372889999999999500e-01
8.372889999999999500e-01
8.372889999999999500e-01
8.356780000000000319e-01
8.364840000000000053e-01
8.364840000000000053e-01
8.364840000000000053e-01
8.348719999999999475e-01
8.372889999999999500e-01
8.348719999999999475e-01
8.340659999999999741e-01
8.364840000000000053e-01
8.356780000000000319e-01
8.276189999999999936e-01
8.356780000000000319e-01
8.356780000000000319e-01
8.372889999999999500e-01
8.372889999999999500e-01
8.340659999999999741e-01
8.364840000000000053e-01
8.332600000000000007e-01
8.340659999999999741e-01
8.364840000000000053e-01
8.348719999999999475e-01
8.372889999999999500e-01
8.348719999999999475e-01
8.389010000000000078e-01
8.380950000000000344e-01
8.372889999999999500e-01
8.340659999999999741e-01
8.348719999999999475e-01
8.372889999999999500e-01
8.340659999999999741e-01
8.356780000000000319e-01
8.380950000000000344e-01
8.356780000000000319e-01
8.364840000000000053e-01
8.348719999999999475e-01
8.348719999999999475e-01
8.340659999999999741e-01
8.372889999999999500e-01
8.389010000000000078e-01
8.340659999999999741e-01
8.340659999999999741e-01
8.356780000000000319e-01
8.380950000000000344e-01
8.348719999999999475e-01
8.332600000000000007e-01
8.308419999999999694e-01
8.372889999999999500e-01
8.340659999999999741e-01
8.308419999999999694e-01
8.316480000000000539e-01
8.308419999999999694e-01
8.324540000000000273e-01
8.348719999999999475e-01
8.340659999999999741e-01
8.380950000000000344e-01
8.380950000000000344e-01
8.324540000000000273e-01
8.372889999999999500e-01
8.356780000000000319e-01
8.380950000000000344e-01
8.324540000000000273e-01
8.348719999999999475e-01
8.340659999999999741e-01
8.356780000000000319e-01
8.372889999999999500e-01
8.364840000000000053e-01
8.372889999999999500e-01
8.364840000000000053e-01
8.340659999999999741e-01
8.324540000000000273e-01
8.356780000000000319e-01
8.364840000000000053e-01
8.364840000000000053e-01
8.380950000000000344e-01
8.332600000000000007e-01
8.364840000000000053e-01
8.348719999999999475e-01
8.348719999999999475e-01
8.356780000000000319e-01
8.364840000000000053e-01
8.340659999999999741e-01
8.372889999999999500e-01
8.340659999999999741e-01
8.364840000000000053e-01
8.356780000000000319e-01
8.356780000000000319e-01
8.340659999999999741e-01
8.324540000000000273e-01
8.308419999999999694e-01
8.308419999999999694e-01
8.332600000000000007e-01
8.340659999999999741e-01
8.372889999999999500e-01
8.340659999999999741e-01
8.397069999999999812e-01
8.340659999999999741e-01
8.356780000000000319e-01
8.372889999999999500e-01
8.372889999999999500e-01
8.340659999999999741e-01
8.364840000000000053e-01
8.364840000000000053e-01
8.324540000000000273e-01
8.340659999999999741e-01
8.332600000000000007e-01
8.340659999999999741e-01
8.356780000000000319e-01
8.340659999999999741e-01
8.340659999999999741e-01
8.356780000000000319e-01
8.364840000000000053e-01
8.348719999999999475e-01
8.372889999999999500e-01
8.364840000000000053e-01
8.389010000000000078e-01
8.372889999999999500e-01
8.348719999999999475e-01
8.380950000000000344e-01
8.380950000000000344e-01
8.348719999999999475e-01
8.397069999999999812e-01
8.340659999999999741e-01
8.300370000000000248e-01
8.356780000000000319e-01
8.356780000000000319e-01
8.356780000000000319e-01
8.364840000000000053e-01
8.356780000000000319e-01
8.380950000000000344e-01
8.308419999999999694e-01
8.356780000000000319e-01
8.348719999999999475e-01
8.340659999999999741e-01
8.340659999999999741e-01
8.292310000000000514e-01
8.308419999999999694e-01
8.364840000000000053e-01
8.308419999999999694e-01
8.364840000000000053e-01
8.389010000000000078e-01
8.348719999999999475e-01
8.348719999999999475e-01
8.397069999999999812e-01
8.380950000000000344e-01
8.340659999999999741e-01
8.372889999999999500e-01
8.340659999999999741e-01
8.340659999999999741e-01
8.340659999999999741e-01
8.380950000000000344e-01
8.364840000000000053e-01
8.389010000000000078e-01
8.340659999999999741e-01
8.356780000000000319e-01
8.348719999999999475e-01
8.348719999999999475e-01
8.380950000000000344e-01
8.380950000000000344e-01
8.340659999999999741e-01
8.372889999999999500e-01
8.276189999999999936e-01
8.364840000000000053e-01
8.332600000000000007e-01
8.340659999999999741e-01
8.324540000000000273e-01
8.380950000000000344e-01
8.348719999999999475e-01
8.364840000000000053e-01
8.340659999999999741e-01
8.356780000000000319e-01
8.348719999999999475e-01
8.405129999999999546e-01
8.308419999999999694e-01
8.356780000000000319e-01
8.389010000000000078e-01
8.372889999999999500e-01
8.340659999999999741e-01
8.340659999999999741e-01
8.332600000000000007e-01
8.372889999999999500e-01
8.372889999999999500e-01
8.405129999999999546e-01
8.413190000000000390e-01
8.348719999999999475e-01
8.348719999999999475e-01
8.405129999999999546e-01
8.429299999999999571e-01
8.380950000000000344e-01
8.356780000000000319e-01
8.364840000000000053e-01
8.389010000000000078e-01
8.348719999999999475e-01
8.340659999999999741e-01
8.380950000000000344e-01
8.380950000000000344e-01
8.372889999999999500e-01
8.413190000000000390e-01
8.405129999999999546e-01
8.397069999999999812e-01
8.405129999999999546e-01
8.437360000000000415e-01
8.372889999999999500e-01
8.397069999999999812e-01
8.477660000000000196e-01
8.413190000000000390e-01
8.405129999999999546e-01
8.445420000000000149e-01
8.453479999999999883e-01
8.445420000000000149e-01
8.477660000000000196e-01
8.429299999999999571e-01
8.437360000000000415e-01
8.429299999999999571e-01
8.477660000000000196e-01
8.413190000000000390e-01
8.421250000000000124e-01
8.405129999999999546e-01
8.405129999999999546e-01
8.405129999999999546e-01
8.421250000000000124e-01
8.187550000000000106e-01
8.469600000000000461e-01
8.405129999999999546e-01
8.437360000000000415e-01
8.405129999999999546e-01
8.413190000000000390e-01
8.445420000000000149e-01
8.389010000000000078e-01
8.405129999999999546e-01
8.405129999999999546e-01
8.405129999999999546e-01
8.356780000000000319e-01
8.372889999999999500e-01
8.372889999999999500e-01
8.340659999999999741e-01
8.356780000000000319e-01
8.380950000000000344e-01
8.340659999999999741e-01
8.364840000000000053e-01
8.372889999999999500e-01
8.340659999999999741e-01
8.356780000000000319e-01
8.348719999999999475e-01
8.340659999999999741e-01
8.372889999999999500e-01
8.340659999999999741e-01
8.348719999999999475e-01
8.364840000000000053e-01
8.364840000000000053e-01
8.340659999999999741e-01
8.380950000000000344e-01
8.340659999999999741e-01
8.445420000000000149e-01
8.501830000000000220e-01
8.638829999999999565e-01
8.542119999999999713e-01
8.638829999999999565e-01
8.671060000000000434e-01
8.735530000000000239e-01
8.791940000000000310e-01
8.888639999999999874e-01
8.896699999999999608e-01
8.864469999999999850e-01
8.896699999999999608e-01
8.808059999999999778e-01
8.800000000000000044e-01
8.767770000000000286e-01
8.630769999999999831e-01
8.372889999999999500e-01
8.034430000000000183e-01
7.800730000000000164e-01
7.687910000000000021e-01
7.720150000000000068e-01
7.712090000000000334e-01
7.647620000000000529e-01
7.623440000000000216e-01
7.575089999999999879e-01
7.542860000000000120e-01
7.695969999999999756e-01
7.704029999999999490e-01
7.768500000000000405e-01
7.849080000000000501e-01
7.889380000000000281e-01
7.889380000000000281e-01
7.953850000000000087e-01
8.066670000000000229e-01
8.131140000000000034e-01
8.227839999999999598e-01
8.227839999999999598e-01
8.316480000000000539e-01
8.308419999999999694e-01
8.348719999999999475e-01
8.397069999999999812e-01
8.372889999999999500e-01
8.364840000000000053e-01
8.413190000000000390e-01
8.445420000000000149e-01
8.413190000000000390e-01
8.405129999999999546e-01
8.429299999999999571e-01
8.421250000000000124e-01
8.372889999999999500e-01
8.445420000000000149e-01
8.469600000000000461e-01
8.445420000000000149e-01
8.469600000000000461e-01
8.461539999999999617e-01
8.485709999999999642e-01
8.445420000000000149e-01
8.469600000000000461e-01
8.405129999999999546e-01
8.469600000000000461e-01
8.469600000000000461e-01
8.469600000000000461e-01
8.501830000000000220e-01
8.477660000000000196e-01
8.485709999999999642e-01
8.517949999999999688e-01
8.509889999999999954e-01
8.453479999999999883e-01
8.469600000000000461e-01
8.485709999999999642e-01
8.517949999999999688e-01
8.501830000000000220e-01
8.493770000000000486e-01
8.493770000000000486e-01
8.534070000000000267e-01
8.534070000000000267e-01
8.566300000000000026e-01
8.542119999999999713e-01
8.574359999999999760e-01
8.566300000000000026e-01
8.598529999999999784e-01
8.630769999999999831e-01
8.598529999999999784e-01
8.566300000000000026e-01
8.606589999999999518e-01
8.630769999999999831e-01
8.638829999999999565e-01
8.582419999999999494e-01
8.622710000000000097e-01
8.614650000000000363e-01
8.638829999999999565e-01
8.614650000000000363e-01
8.646890000000000409e-01
8.671060000000000434e-01
8.679120000000000168e-01
8.703300000000000480e-01
8.695239999999999636e-01
8.687179999999999902e-01
8.695239999999999636e-01
8.711360000000000214e-01
8.759710000000000552e-01
8.751649999999999707e-01
8.791940000000000310e-01
8.767770000000000286e-01
8.783879999999999466e-01
8.791940000000000310e-01
8.800000000000000044e-01
8.856410000000000116e-01
8.824180000000000357e-01
8.896699999999999608e-01
8.848350000000000382e-01
8.880590000000000428e-01
8.872529999999999584e-01
8.920879999999999921e-01
8.912820000000000187e-01
8.904760000000000453e-01
8.945049999999999946e-01
8.896699999999999608e-01
8.920879999999999921e-01
8.928939999999999655e-01
8.937000000000000499e-01
8.896699999999999608e-01
8.904760000000000453e-01
8.912820000000000187e-01
8.896699999999999608e-01
8.896699999999999608e-01
8.920879999999999921e-01
8.888639999999999874e-01
8.864469999999999850e-01
8.896699999999999608e-01
8.840289999999999537e-01
8.808059999999999778e-01
8.735530000000000239e-01
8.767770000000000286e-01
8.751649999999999707e-01
8.727470000000000505e-01
8.654950000000000143e-01
8.662999999999999590e-01
8.654950000000000143e-01
8.630769999999999831e-01
8.566300000000000026e-01
8.566300000000000026e-01
8.542119999999999713e-01
8.509889999999999954e-01
8.453479999999999883e-01
8.445420000000000149e-01
8.469600000000000461e-01
8.477660000000000196e-01
8.405129999999999546e-01
8.413190000000000390e-01
8.445420000000000149e-01
8.397069999999999812e-01
8.389010000000000078e-01
8.372889999999999500e-01
8.372889999999999500e-01
8.372889999999999500e-01
8.356780000000000319e-01
8.380950000000000344e-01
8.413190000000000390e-01
8.372889999999999500e-01
8.397069999999999812e-01
8.372889999999999500e-01
8.526010000000000533e-01
8.348719999999999475e-01
8.380950000000000344e-01
8.348719999999999475e-01
8.364840000000000053e-01
8.340659999999999741e-01
8.348719999999999475e-01
8.356780000000000319e-01
8.340659999999999741e-01
8.348719999999999475e-01
8.372889999999999500e-01
8.348719999999999475e-01
8.356780000000000319e-01
8.356780000000000319e-01
8.356780000000000319e-01
8.356780000000000319e-01
8.340659999999999741e-01
8.332600000000000007e-01
8.308419999999999694e-01
8.348719999999999475e-01
8.324540000000000273e-01
8.300370000000000248e-01
8.332600000000000007e-01
8.340659999999999741e-01
8.364840000000000053e-01
8.340659999999999741e-01
8.348719999999999475e-01
8.348719999999999475e-01
8.364840000000000053e-01
8.356780000000000319e-01
8.364840000000000053e-01
8.340659999999999741e-01
8.324540000000000273e-01
8.348719999999999475e-01
8.348719999999999475e-01
8.364840000000000053e-01
8.316480000000000539e-01
8.348719999999999475e-01
8.348719999999999475e-01
8.372889999999999500e-01
8.445420000000000149e-01
8.356780000000000319e-01
8.397069999999999812e-01
8.372889999999999500e-01
8.340659999999999741e-01
8.340659999999999741e-01
8.324540000000000273e-01
8.356780000000000319e-01
8.364840000000000053e-01
8.340659999999999741e-01
8.509889999999999954e-01
8.380950000000000344e-01
8.397069999999999812e-01
8.364840000000000053e-01
8.437360000000000415e-01
8.356780000000000319e-01
8.413190000000000390e-01
8.348719999999999475e-01
8.356780000000000319e-01
8.413190000000000390e-01
8.372889999999999500e-01
8.364840000000000053e-01
8.372889999999999500e-01
8.364840000000000053e-01
8.356780000000000319e-01
8.348719999999999475e-01
8.364840000000000053e-01
8.364840000000000053e-01
8.372889999999999500e-01
8.380950000000000344e-01
8.364840000000000053e-01
8.356780000000000319e-01
8.372889999999999500e-01
8.348719999999999475e-01
8.364840000000000053e-01
8.340659999999999741e-01
8.372889999999999500e-01
8.324540000000000273e-01
8.364840000000000053e-01
8.372889999999999500e-01
8.364840000000000053e-01
8.380950000000000344e-01
8.364840000000000053e-01
8.348719999999999475e-01
8.348719999999999475e-01
8.372889999999999500e-01
8.348719999999999475e-01
8.380950000000000344e-01
8.348719999999999475e-01
8.380950000000000344e-01
8.340659999999999741e-01
8.364840000000000053e-01
8.372889999999999500e-01
8.324540000000000273e-01
8.340659999999999741e-01
8.324540000000000273e-01
8.348719999999999475e-01
8.324540000000000273e-01
8.332600000000000007e-01
8.348719999999999475e-01
8.356780000000000319e-01
8.364840000000000053e-01
8.372889999999999500e-01
8.348719999999999475e-01
8.308419999999999694e-01
8.348719999999999475e-01
8.316480000000000539e-01
8.340659999999999741e-01
8.316480000000000539e-01
8.308419999999999694e-01
8.332600000000000007e-01
8.324540000000000273e-01
8.356780000000000319e-01
8.340659999999999741e-01
8.268130000000000202e-01
8.316480000000000539e-01
8.308419999999999694e-01
8.300370000000000248e-01
8.332600000000000007e-01
8.324540000000000273e-01
8.364840000000000053e-01
8.324540000000000273e-01
8.308419999999999694e-01
8.308419999999999694e-01
8.340659999999999741e-01
8.308419999999999694e-01
8.348719999999999475e-01
8.356780000000000319e-01
8.380950000000000344e-01
8.324540000000000273e-01
8.324540000000000273e-01
8.445420000000000149e-01
8.348719999999999475e-01
8.332600000000000007e-01
8.316480000000000539e-01
8.340659999999999741e-01
8.348719999999999475e-01
8.348719999999999475e-01
8.348719999999999475e-01
8.348719999999999475e-01
8.276189999999999936e-01
8.356780000000000319e-01
8.324540000000000273e-01
8.364840000000000053e-01
8.340659999999999741e-01
8.364840000000000053e-01
8.348719999999999475e-01
8.356780000000000319e-01
8.364840000000000053e-01
8.364840000000000053e-01
8.300370000000000248e-01
8.348719999999999475e-01
8.348719999999999475e-01
8.356780000000000319e-01
8.389010000000000078e-01
8.372889999999999500e-01
8.405129999999999546e-01
8.372889999999999500e-01
8.372889999999999500e-01
8.372889999999999500e-01
8.397069999999999812e-01
8.380950000000000344e-01
8.372889999999999500e-01
8.364840000000000053e-01
8.429299999999999571e-01
8.372889999999999500e-01
8.372889999999999500e-01
8.493770000000000486e-01
8.405129999999999546e-01
8.389010000000000078e-01
8.348719999999999475e-01
8.380950000000000344e-01
8.380950000000000344e-01
8.397069999999999812e-01
8.429299999999999571e-01
8.437360000000000415e-01
8.437360000000000415e-01
8.397069999999999812e-01
8.413190000000000390e-01
8.397069999999999812e-01
8.445420000000000149e-01
8.405129999999999546e-01
8.389010000000000078e-01
8.413190000000000390e-01
8.348719999999999475e-01
8.356780000000000319e-01
8.332600000000000007e-01
8.308419999999999694e-01
8.324540000000000273e-01
8.308419999999999694e-01
8.356780000000000319e-01
8.316480000000000539e-01
8.332600000000000007e-01
8.340659999999999741e-01
8.348719999999999475e-01
8.324540000000000273e-01
8.324540000000000273e-01
8.340659999999999741e-01
8.340659999999999741e-01
8.308419999999999694e-01
8.340659999999999741e-01
8.340659999999999741e-01
8.316480000000000539e-01
8.324540000000000273e-01
8.348719999999999475e-01
8.308419999999999694e-01
8.348719999999999475e-01
8.372889999999999500e-01
8.413190000000000390e-01
8.437360000000000415e-01
8.485709999999999642e-01
8.550179999999999447e-01
8.598529999999999784e-01
8.638829999999999565e-01
8.662999999999999590e-01
8.800000000000000044e-01
8.840289999999999537e-01
8.864469999999999850e-01
8.824180000000000357e-01
8.896699999999999608e-01
8.791940000000000310e-01
8.832229999999999803e-01
8.800000000000000044e-01
8.606589999999999518e-01
8.316480000000000539e-01
8.018319999999999892e-01
7.679850000000000287e-01
7.687910000000000021e-01
7.695969999999999756e-01
7.679850000000000287e-01
7.631499999999999950e-01
7.575089999999999879e-01
7.518679999999999808e-01
7.510620000000000074e-01
7.526739999999999542e-01
7.671790000000000553e-01
7.695969999999999756e-01
7.784619999999999873e-01
7.816849999999999632e-01
7.808789999999999898e-01
7.921610000000000040e-01
7.994139999999999580e-01
8.147250000000000325e-01
8.155310000000000059e-01
8.211720000000000130e-01
8.260070000000000467e-01
8.243960000000000177e-01
8.292310000000000514e-01
8.308419999999999694e-01
8.348719999999999475e-01
8.348719999999999475e-01
8.324540000000000273e-01
8.389010000000000078e-01
8.413190000000000390e-01
8.380950000000000344e-01
8.389010000000000078e-01
8.389010000000000078e-01
8.397069999999999812e-01
8.413190000000000390e-01
8.413190000000000390e-01
8.445420000000000149e-01
8.461539999999999617e-01
8.445420000000000149e-01
8.477660000000000196e-01
8.493770000000000486e-01
8.437360000000000415e-01
8.437360000000000415e-01
8.445420000000000149e-01
8.429299999999999571e-01
8.445420000000000149e-01
8.461539999999999617e-01
8.437360000000000415e-01
8.437360000000000415e-01
8.485709999999999642e-01
8.453479999999999883e-01
8.477660000000000196e-01
8.493770000000000486e-01
8.469600000000000461e-01
8.453479999999999883e-01
8.493770000000000486e-01
8.501830000000000220e-01
8.469600000000000461e-01
8.534070000000000267e-01
8.469600000000000461e-01
8.469600000000000461e-01
8.461539999999999617e-01
8.526010000000000533e-01
8.509889999999999954e-01
8.534070000000000267e-01
8.550179999999999447e-01
8.574359999999999760e-01
8.542119999999999713e-01
8.405129999999999546e-01
8.574359999999999760e-01
8.550179999999999447e-01
8.566300000000000026e-01
8.542119999999999713e-01
8.566300000000000026e-01
8.598529999999999784e-01
8.606589999999999518e-01
8.654950000000000143e-01
8.598529999999999784e-01
8.614650000000000363e-01
8.630769999999999831e-01
8.630769999999999831e-01
8.703300000000000480e-01
8.671060000000000434e-01
8.671060000000000434e-01
8.695239999999999636e-01
8.727470000000000505e-01
8.711360000000000214e-01
8.759710000000000552e-01
8.743589999999999973e-01
8.791940000000000310e-01
8.832229999999999803e-01
8.816119999999999512e-01
8.808059999999999778e-01
8.824180000000000357e-01
8.791940000000000310e-01
8.840289999999999537e-01
8.840289999999999537e-01
8.888639999999999874e-01
8.832229999999999803e-01
8.888639999999999874e-01
8.824180000000000357e-01
8.856410000000000116e-01
8.920879999999999921e-01
8.872529999999999584e-01
8.888639999999999874e-01
8.904760000000000453e-01
8.880590000000000428e-01
8.888639999999999874e-01
8.856410000000000116e-01
8.824180000000000357e-01
8.856410000000000116e-01
8.864469999999999850e-01
8.840289999999999537e-01
8.832229999999999803e-01
8.945049999999999946e-01
8.646890000000000409e-01
8.767770000000000286e-01
8.727470000000000505e-01
8.630769999999999831e-01
8.751649999999999707e-01
8.646890000000000409e-01
8.614650000000000363e-01
8.566300000000000026e-01
8.542119999999999713e-01
8.526010000000000533e-01
8.501830000000000220e-01
8.477660000000000196e-01
8.405129999999999546e-01
8.429299999999999571e-01
8.437360000000000415e-01
8.397069999999999812e-01
8.413190000000000390e-01
8.372889999999999500e-01
8.372889999999999500e-01
8.356780000000000319e-01
8.348719999999999475e-01
8.356780000000000319e-01
8.348719999999999475e-01
8.380950000000000344e-01
8.324540000000000273e-01
8.348719999999999475e-01
8.340659999999999741e-01
8.348719999999999475e-01
8.356780000000000319e-01
8.324540000000000273e-01
8.348719999999999475e-01
8.332600000000000007e-01
8.340659999999999741e-01
8.324540000000000273e-01
8.332600000000000007e-01
8.324540000000000273e-01
8.348719999999999475e-01
8.340659999999999741e-01
8.380950000000000344e-01
8.308419999999999694e-01
8.300370000000000248e-01
8.364840000000000053e-01
8.300370000000000248e-01
8.372889999999999500e-01
8.332600000000000007e-01
8.308419999999999694e-01
8.324540000000000273e-01
8.300370000000000248e-01
8.364840000000000053e-01
8.284249999999999670e-01
8.332600000000000007e-01
8.300370000000000248e-01
8.324540000000000273e-01
8.308419999999999694e-01
8.332600000000000007e-01
8.348719999999999475e-01
8.308419999999999694e-01
8.308419999999999694e-01
8.332600000000000007e-01
8.356780000000000319e-01
8.389010000000000078e-01
8.308419999999999694e-01
8.340659999999999741e-01
8.316480000000000539e-01
8.324540000000000273e-01
8.340659999999999741e-01
8.308419999999999694e-01
8.316480000000000539e-01
8.316480000000000539e-01
8.340659999999999741e-01
8.292310000000000514e-01
8.453479999999999883e-01
8.316480000000000539e-01
8.316480000000000539e-01
8.324540000000000273e-01
8.364840000000000053e-01
8.308419999999999694e-01
8.332600000000000007e-01
8.332600000000000007e-01
8.348719999999999475e-01
8.348719999999999475e-01
8.332600000000000007e-01
8.308419999999999694e-01
8.372889999999999500e-01
8.364840000000000053e-01
8.340659999999999741e-01
8.316480000000000539e-01
8.308419999999999694e-01
8.356780000000000319e-01
8.300370000000000248e-01
8.308419999999999694e-01
8.356780000000000319e-01
8.348719999999999475e-01
8.348719999999999475e-01
8.340659999999999741e-01
8.252009999999999623e-01
8.437360000000000415e-01
8.332600000000000007e-01
8.340659999999999741e-01
8.372889999999999500e-01
8.324540000000000273e-01
8.356780000000000319e-01
8.066670000000000229e-01
8.364840000000000053e-01
8.316480000000000539e-01
8.316480000000000539e-01
8.332600000000000007e-01
8.340659999999999741e-01
8.380950000000000344e-01
8.316480000000000539e-01
8.308419999999999694e-01
8.276189999999999936e-01
8.340659999999999741e-01
8.308419999999999694e-01
8.332600000000000007e-01
8.316480000000000539e-01
8.308419999999999694e-01
8.316480000000000539e-01
8.316480000000000539e-01
8.332600000000000007e-01
8.308419999999999694e-01
8.324540000000000273e-01
8.332600000000000007e-01
8.348719999999999475e-01
8.340659999999999741e-01
8.292310000000000514e-01
8.372889999999999500e-01
8.316480000000000539e-01
8.332600000000000007e-01
8.316480000000000539e-01
8.348719999999999475e-01
8.372889999999999500e-01
8.340659999999999741e-01
8.316480000000000539e-01
8.308419999999999694e-01
8.340659999999999741e-01
8.308419999999999694e-01
8.308419999999999694e-01
8.340659999999999741e-01
8.348719999999999475e-01
8.308419999999999694e-01
8.340659999999999741e-01
8.348719999999999475e-01
8.276189999999999936e-01
8.364840000000000053e-01
8.348719999999999475e-01
8.372889999999999500e-01
8.308419999999999694e-01
8.340659999999999741e-01
8.300370000000000248e-01
8.324540000000000273e-01
8.332600000000000007e-01
8.380950000000000344e-01
8.340659999999999741e-01
8.308419999999999694e-01
8.356780000000000319e-01
8.316480000000000539e-01
8.316480000000000539e-01
8.324540000000000273e-01
8.356780000000000319e-01
8.380950000000000344e-01
8.348719999999999475e-01
8.389010000000000078e-01
8.364840000000000053e-01
8.324540000000000273e-01
8.372889999999999500e-01
8.348719999999999475e-01
8.356780000000000319e-01
8.332600000000000007e-01
8.276189999999999936e-01
8.332600000000000007e-01
8.340659999999999741e-01
8.332600000000000007e-01
8.340659999999999741e-01
8.308419999999999694e-01
8.340659999999999741e-01
8.356780000000000319e-01
8.348719999999999475e-01
8.348719999999999475e-01
8.308419999999999694e-01
8.348719999999999475e-01
8.332600000000000007e-01
8.308419999999999694e-01
8.308419999999999694e-01
8.372889999999999500e-01
8.364840000000000053e-01
8.324540000000000273e-01
8.308419999999999694e-01
8.364840000000000053e-01
8.389010000000000078e-01
8.316480000000000539e-01
8.372889999999999500e-01
8.316480000000000539e-01
8.340659999999999741e-01
8.324540000000000273e-01
8.316480000000000539e-01
8.340659999999999741e-01
8.308419999999999694e-01
8.316480000000000539e-01
8.324540000000000273e-01
8.356780000000000319e-01
8.316480000000000539e-01
8.348719999999999475e-01
8.493770000000000486e-01
8.324540000000000273e-01
8.380950000000000344e-01
8.501830000000000220e-01
8.340659999999999741e-01
8.332600000000000007e-01
8.332600000000000007e-01
8.389010000000000078e-01
8.348719999999999475e-01
8.348719999999999475e-01
8.316480000000000539e-01
8.340659999999999741e-01
8.340659999999999741e-01
8.308419999999999694e-01
8.340659999999999741e-01
8.340659999999999741e-01
8.308419999999999694e-01
8.324540000000000273e-01
8.324540000000000273e-01
8.348719999999999475e-01
8.356780000000000319e-01
8.380950000000000344e-01
8.372889999999999500e-01
8.437360000000000415e-01
8.348719999999999475e-01
8.389010000000000078e-01
8.389010000000000078e-01
8.405129999999999546e-01
8.364840000000000053e-01
8.380950000000000344e-01
8.389010000000000078e-01
8.372889999999999500e-01
8.429299999999999571e-01
8.356780000000000319e-01
8.356780000000000319e-01
8.372889999999999500e-01
8.389010000000000078e-01
8.380950000000000344e-01
8.372889999999999500e-01
8.389010000000000078e-01
8.421250000000000124e-01
8.372889999999999500e-01
8.389010000000000078e-01
8.405129999999999546e-01
8.429299999999999571e-01
8.413190000000000390e-01
8.380950000000000344e-01
8.405129999999999546e-01
8.397069999999999812e-01
8.413190000000000390e-01
8.348719999999999475e-01
8.356780000000000319e-01
8.340659999999999741e-01
8.332600000000000007e-01
8.308419999999999694e-01
8.348719999999999475e-01
8.380950000000000344e-01
8.332600000000000007e-01
8.364840000000000053e-01
8.324540000000000273e-01
8.348719999999999475e-01
8.340659999999999741e-01
8.348719999999999475e-01
8.308419999999999694e-01
8.324540000000000273e-01
8.316480000000000539e-01
8.348719999999999475e-01
8.324540000000000273e-01
8.324540000000000273e-01
8.300370000000000248e-01
8.316480000000000539e-01
8.356780000000000319e-01
8.372889999999999500e-01
8.348719999999999475e-01
8.364840000000000053e-01
8.421250000000000124e-01
8.437360000000000415e-01
8.501830000000000220e-01
8.606589999999999518e-01
8.638829999999999565e-01
8.662999999999999590e-01
8.767770000000000286e-01
8.783879999999999466e-01
8.880590000000000428e-01
8.856410000000000116e-01
8.880590000000000428e-01
8.864469999999999850e-01
8.824180000000000357e-01
8.808059999999999778e-01
8.735530000000000239e-01
8.534070000000000267e-01
8.268130000000000202e-01
7.986079999999999846e-01
7.744320000000000093e-01
7.704029999999999490e-01
7.728209999999999802e-01
7.720150000000000068e-01
7.647620000000000529e-01
7.591210000000000457e-01
7.470329999999999471e-01
7.510620000000000074e-01
7.583149999999999613e-01
7.631499999999999950e-01
7.744320000000000093e-01
7.776560000000000139e-01
7.857140000000000235e-01
7.929669999999999774e-01
7.969960000000000377e-01
8.090840000000000254e-01
8.115019999999999456e-01
8.187550000000000106e-01
8.195599999999999552e-01
8.284249999999999670e-01
8.284249999999999670e-01
8.348719999999999475e-01
8.324540000000000273e-01
8.324540000000000273e-01
8.397069999999999812e-01
8.372889999999999500e-01
8.397069999999999812e-01
8.380950000000000344e-01
8.429299999999999571e-01
8.421250000000000124e-01
8.405129999999999546e-01
8.389010000000000078e-01
8.437360000000000415e-01
8.445420000000000149e-01
8.445420000000000149e-01
8.437360000000000415e-01
8.445420000000000149e-01
8.389010000000000078e-01
8.493770000000000486e-01
8.477660000000000196e-01
8.461539999999999617e-01
8.477660000000000196e-01
8.453479999999999883e-01
8.445420000000000149e-01
8.445420000000000149e-01
8.461539999999999617e-01
8.485709999999999642e-01
8.493770000000000486e-01
8.477660000000000196e-01
8.469600000000000461e-01
8.534070000000000267e-01
8.493770000000000486e-01
8.501830000000000220e-01
8.509889999999999954e-01
8.469600000000000461e-01
8.485709999999999642e-01
8.542119999999999713e-01
8.558240000000000292e-01
8.542119999999999713e-01
8.526010000000000533e-01
8.517949999999999688e-01
8.542119999999999713e-01
8.534070000000000267e-01
8.526010000000000533e-01
8.550179999999999447e-01
8.566300000000000026e-01
8.590480000000000338e-01
8.542119999999999713e-01
8.590480000000000338e-01
8.566300000000000026e-01
8.606589999999999518e-01
8.598529999999999784e-01
8.622710000000000097e-01
8.622710000000000097e-01
8.662999999999999590e-01
8.646890000000000409e-01
8.646890000000000409e-01
8.671060000000000434e-01
8.695239999999999636e-01
8.719409999999999661e-01
8.711360000000000214e-01
8.703300000000000480e-01
8.703300000000000480e-01
8.735530000000000239e-01
8.767770000000000286e-01
8.759710000000000552e-01
8.767770000000000286e-01
8.767770000000000286e-01
8.800000000000000044e-01
8.840289999999999537e-01
8.808059999999999778e-01
8.856410000000000116e-01
8.848350000000000382e-01
8.928939999999999655e-01
8.856410000000000116e-01
8.880590000000000428e-01
8.856410000000000116e-01
8.840289999999999537e-01
8.880590000000000428e-01
8.928939999999999655e-01
8.928939999999999655e-01
8.953109999999999680e-01
8.888639999999999874e-01
8.896699999999999608e-01
8.912820000000000187e-01
8.961170000000000524e-01
8.896699999999999608e-01
8.880590000000000428e-01
8.856410000000000116e-01
8.864469999999999850e-01
8.791940000000000310e-01
8.816119999999999512e-01
8.824180000000000357e-01
8.800000000000000044e-01
8.767770000000000286e-01
8.767770000000000286e-01
8.735530000000000239e-01
8.695239999999999636e-01
8.711360000000000214e-01
8.662999999999999590e-01
8.622710000000000097e-01
8.582419999999999494e-01
8.550179999999999447e-01
8.566300000000000026e-01
8.598529999999999784e-01
8.526010000000000533e-01
8.453479999999999883e-01
8.477660000000000196e-01
8.445420000000000149e-01
8.445420000000000149e-01
8.389010000000000078e-01
8.421250000000000124e-01
8.413190000000000390e-01
8.389010000000000078e-01
8.372889999999999500e-01
8.389010000000000078e-01
8.380950000000000344e-01
8.380950000000000344e-01
8.372889999999999500e-01
8.372889999999999500e-01
8.372889999999999500e-01
8.340659999999999741e-01
8.348719999999999475e-01
8.372889999999999500e-01
8.348719999999999475e-01
8.356780000000000319e-01
8.356780000000000319e-01
8.364840000000000053e-01
8.348719999999999475e-01
8.397069999999999812e-01
8.348719999999999475e-01
8.372889999999999500e-01
8.340659999999999741e-01
8.364840000000000053e-01
8.308419999999999694e-01
8.348719999999999475e-01
8.364840000000000053e-01
8.364840000000000053e-01
8.356780000000000319e-01
8.332600000000000007e-01
8.348719999999999475e-01
8.348719999999999475e-01
8.332600000000000007e-01
8.380950000000000344e-01
8.348719999999999475e-01
8.332600000000000007e-01
8.380950000000000344e-01
8.509889999999999954e-01
8.364840000000000053e-01
8.364840000000000053e-01
8.348719999999999475e-01
8.316480000000000539e-01
8.308419999999999694e-01
8.324540000000000273e-01
8.316480000000000539e-01
8.372889999999999500e-01
8.348719999999999475e-01
8.308419999999999694e-01
8.308419999999999694e-01
8.340659999999999741e-01
8.348719999999999475e-01
8.324540000000000273e-01
8.332600000000000007e-01
8.340659999999999741e-01
8.380950000000000344e-01
8.340659999999999741e-01
8.324540000000000273e-01
8.356780000000000319e-01
8.324540000000000273e-01
8.372889999999999500e-01
8.364840000000000053e-01
8.308419999999999694e-01
8.348719999999999475e-01
8.348719999999999475e-01
8.340659999999999741e-01
8.340659999999999741e-01
8.380950000000000344e-01
8.348719999999999475e-01
8.356780000000000319e-01
8.348719999999999475e-01
8.340659999999999741e-01
8.389010000000000078e-01
8.348719999999999475e-01
8.372889999999999500e-01
8.332600000000000007e-01
8.123080000000000300e-01
8.348719999999999475e-01
8.380950000000000344e-01
8.348719999999999475e-01
8.324540000000000273e-01
8.340659999999999741e-01
8.372889999999999500e-01
8.380950000000000344e-01
8.340659999999999741e-01
8.324540000000000273e-01
8.397069999999999812e-01
8.348719999999999475e-01
8.364840000000000053e-01
8.332600000000000007e-01
8.380950000000000344e-01
8.364840000000000053e-01
8.340659999999999741e-01
8.324540000000000273e-01
8.340659999999999741e-01
8.380950000000000344e-01
8.332600000000000007e-01
8.380950000000000344e-01
8.372889999999999500e-01
8.348719999999999475e-01
8.340659999999999741e-01
8.429299999999999571e-01
8.316480000000000539e-01
8.324540000000000273e-01
8.348719999999999475e-01
8.348719999999999475e-01
8.324540000000000273e-01
8.364840000000000053e-01
8.340659999999999741e-01
8.453479999999999883e-01
8.308419999999999694e-01
8.356780000000000319e-01
8.340659999999999741e-01
8.356780000000000319e-01
8.364840000000000053e-01
8.372889999999999500e-01
8.324540000000000273e-01
8.372889999999999500e-01
8.340659999999999741e-01
8.324540000000000273e-01
8.308419999999999694e-01
8.332600000000000007e-01
8.308419999999999694e-01
8.308419999999999694e-01
8.308419999999999694e-01
8.324540000000000273e-01
8.348719999999999475e-01
8.324540000000000273e-01
8.348719999999999475e-01
8.324540000000000273e-01
8.324540000000000273e-01
8.300370000000000248e-01
8.348719999999999475e-01
8.340659999999999741e-01
8.332600000000000007e-01
8.332600000000000007e-01
8.380950000000000344e-01
8.316480000000000539e-01
8.372889999999999500e-01
8.308419999999999694e-01
8.324540000000000273e-01
8.348719999999999475e-01
8.340659999999999741e-01
8.364840000000000053e-01
8.324540000000000273e-01
8.300370000000000248e-01
8.340659999999999741e-01
8.316480000000000539e-01
8.332600000000000007e-01
8.340659999999999741e-01
8.364840000000000053e-01
8.316480000000000539e-01
8.332600000000000007e-01
8.445420000000000149e-01
8.308419999999999694e-01
8.300370000000000248e-01
8.332600000000000007e-01
8.308419999999999694e-01
8.308419999999999694e-01
8.316480000000000539e-01
8.332600000000000007e-01
8.364840000000000053e-01
8.397069999999999812e-01
8.340659999999999741e-01
8.356780000000000319e-01
8.389010000000000078e-01
8.397069999999999812e-01
8.372889999999999500e-01
8.380950000000000344e-01
8.364840000000000053e-01
8.372889999999999500e-01
8.372889999999999500e-01
8.340659999999999741e-01
8.364840000000000053e-01
8.405129999999999546e-01
8.348719999999999475e-01
8.348719999999999475e-01
8.372889999999999500e-01
8.356780000000000319e-01
8.380950000000000344e-01
8.380950000000000344e-01
8.364840000000000053e-01
8.372889999999999500e-01
8.389010000000000078e-01
8.380950000000000344e-01
8.364840000000000053e-01
8.380950000000000344e-01
8.356780000000000319e-01
8.389010000000000078e-01
8.389010000000000078e-01
8.372889999999999500e-01
8.356780000000000319e-01
8.372889999999999500e-01
8.332600000000000007e-01
8.364840000000000053e-01
8.340659999999999741e-01
8.300370000000000248e-01
8.300370000000000248e-01
8.316480000000000539e-01
8.324540000000000273e-01
8.340659999999999741e-01
8.348719999999999475e-01
8.308419999999999694e-01
8.348719999999999475e-01
8.324540000000000273e-01
8.324540000000000273e-01
8.348719999999999475e-01
8.308419999999999694e-01
8.348719999999999475e-01
8.364840000000000053e-01
8.308419999999999694e-01
8.316480000000000539e-01
8.340659999999999741e-01
8.340659999999999741e-01
8.300370000000000248e-01
8.316480000000000539e-01
8.380950000000000344e-01
8.324540000000000273e-01
8.364840000000000053e-01
8.421250000000000124e-01
8.437360000000000415e-01
8.461539999999999617e-01
8.534070000000000267e-01
8.614650000000000363e-01
8.630769999999999831e-01
8.695239999999999636e-01
8.751649999999999707e-01
8.791940000000000310e-01
8.791940000000000310e-01
8.824180000000000357e-01
8.767770000000000286e-01
8.816119999999999512e-01
8.783879999999999466e-01
8.662999999999999590e-01
8.348719999999999475e-01
8.050549999999999651e-01
7.816849999999999632e-01
7.736260000000000359e-01
7.744320000000000093e-01
7.760439999999999561e-01
7.679850000000000287e-01
7.623440000000000216e-01
7.567030000000000145e-01
7.558970000000000411e-01
7.615380000000000482e-01
7.679850000000000287e-01
7.728209999999999802e-01
7.792670000000000430e-01
7.832970000000000210e-01
7.824910000000000476e-01
7.889380000000000281e-01
7.994139999999999580e-01
8.098899999999999988e-01
8.147250000000000325e-01
8.203660000000000396e-01
8.227839999999999598e-01
8.252009999999999623e-01
8.276189999999999936e-01
8.300370000000000248e-01
8.316480000000000539e-01
8.308419999999999694e-01
8.356780000000000319e-01
8.324540000000000273e-01
8.260070000000000467e-01
8.356780000000000319e-01
8.380950000000000344e-01
8.364840000000000053e-01
8.405129999999999546e-01
8.397069999999999812e-01
8.421250000000000124e-01
8.372889999999999500e-01
8.413190000000000390e-01
8.389010000000000078e-01
8.405129999999999546e-01
8.421250000000000124e-01
8.397069999999999812e-01
8.405129999999999546e-01
8.429299999999999571e-01
8.405129999999999546e-01
8.453479999999999883e-01
8.477660000000000196e-01
8.461539999999999617e-01
8.493770000000000486e-01
8.477660000000000196e-01
8.413190000000000390e-01
8.485709999999999642e-01
8.469600000000000461e-01
8.566300000000000026e-01
8.493770000000000486e-01
8.469600000000000461e-01
8.469600000000000461e-01
8.461539999999999617e-01
8.493770000000000486e-01
8.509889999999999954e-01
8.501830000000000220e-01
8.542119999999999713e-01
8.509889999999999954e-01
8.485709999999999642e-01
8.566300000000000026e-01
8.509889999999999954e-01
8.517949999999999688e-01
8.526010000000000533e-01
8.534070000000000267e-01
8.542119999999999713e-01
8.566300000000000026e-01
8.558240000000000292e-01
8.582419999999999494e-01
8.566300000000000026e-01
8.590480000000000338e-01
8.606589999999999518e-01
8.566300000000000026e-01
8.638829999999999565e-01
8.606589999999999518e-01
8.598529999999999784e-01
8.630769999999999831e-01
8.662999999999999590e-01
8.662999999999999590e-01
8.671060000000000434e-01
8.679120000000000168e-01
8.735530000000000239e-01
8.703300000000000480e-01
8.735530000000000239e-01
8.775819999999999732e-01
8.783879999999999466e-01
8.775819999999999732e-01
8.791940000000000310e-01
8.824180000000000357e-01
8.808059999999999778e-01
8.832229999999999803e-01
8.840289999999999537e-01
8.864469999999999850e-01
8.832229999999999803e-01
8.848350000000000382e-01
8.856410000000000116e-01
8.864469999999999850e-01
8.888639999999999874e-01
8.864469999999999850e-01
8.864469999999999850e-01
8.896699999999999608e-01
8.856410000000000116e-01
8.864469999999999850e-01
8.888639999999999874e-01
8.872529999999999584e-01
8.880590000000000428e-01
8.832229999999999803e-01
8.848350000000000382e-01
8.824180000000000357e-01
8.864469999999999850e-01
8.791940000000000310e-01
8.783879999999999466e-01
8.759710000000000552e-01
8.703300000000000480e-01
8.840289999999999537e-01
8.662999999999999590e-01
8.638829999999999565e-01
8.598529999999999784e-01
8.534070000000000267e-01
8.566300000000000026e-01
8.598529999999999784e-01
8.542119999999999713e-01
8.477660000000000196e-01
8.477660000000000196e-01
8.445420000000000149e-01
8.413190000000000390e-01
8.437360000000000415e-01
8.372889999999999500e-01
8.389010000000000078e-01
8.372889999999999500e-01
8.397069999999999812e-01
8.380950000000000344e-01
8.324540000000000273e-01
8.372889999999999500e-01
8.364840000000000053e-01
8.348719999999999475e-01
8.372889999999999500e-01
8.364840000000000053e-01
8.332600000000000007e-01
8.308419999999999694e-01
8.308419999999999694e-01
8.308419999999999694e-01
8.308419999999999694e-01
8.308419999999999694e-01
8.324540000000000273e-01
8.316480000000000539e-01
8.300370000000000248e-01
8.308419999999999694e-01
8.276189999999999936e-01
8.284249999999999670e-01
8.316480000000000539e-01
8.316480000000000539e-01
8.316480000000000539e-01
8.308419999999999694e-01
8.276189999999999936e-01
8.308419999999999694e-01
8.284249999999999670e-01
8.284249999999999670e-01
8.308419999999999694e-01
8.324540000000000273e-01
8.284249999999999670e-01
8.147250000000000325e-01
8.308419999999999694e-01
8.292310000000000514e-01
8.308419999999999694e-01
8.308419999999999694e-01
8.292310000000000514e-01
8.340659999999999741e-01
8.308419999999999694e-01
8.316480000000000539e-01
8.276189999999999936e-01
8.308419999999999694e-01
8.316480000000000539e-01
8.276189999999999936e-01
8.300370000000000248e-01
8.260070000000000467e-01
8.268130000000000202e-01
8.300370000000000248e-01
8.308419999999999694e-01
8.300370000000000248e-01
8.292310000000000514e-01
8.292310000000000514e-01
8.316480000000000539e-01
8.316480000000000539e-01
8.260070000000000467e-01
8.284249999999999670e-01
8.308419999999999694e-01
8.300370000000000248e-01
8.308419999999999694e-01
8.276189999999999936e-01
8.332600000000000007e-01
8.332600000000000007e-01
8.332600000000000007e-01
8.332600000000000007e-01
8.324540000000000273e-01
8.308419999999999694e-01
8.332600000000000007e-01
8.348719999999999475e-01
8.340659999999999741e-01
8.316480000000000539e-01
8.308419999999999694e-01
8.284249999999999670e-01
8.340659999999999741e-01
8.340659999999999741e-01
8.356780000000000319e-01
8.332600000000000007e-01
8.324540000000000273e-01
8.308419999999999694e-01
8.348719999999999475e-01
8.340659999999999741e-01
8.316480000000000539e-01
8.316480000000000539e-01
8.324540000000000273e-01
8.340659999999999741e-01
8.340659999999999741e-01
8.324540000000000273e-01
8.332600000000000007e-01
8.300370000000000248e-01
8.340659999999999741e-01
8.316480000000000539e-01
8.332600000000000007e-01
8.348719999999999475e-01
8.348719999999999475e-01
8.348719999999999475e-01
8.324540000000000273e-01
8.316480000000000539e-01
8.316480000000000539e-01
8.340659999999999741e-01
8.324540000000000273e-01
8.300370000000000248e-01
8.308419999999999694e-01
8.348719999999999475e-01
8.276189999999999936e-01
8.324540000000000273e-01
8.308419999999999694e-01
8.324540000000000273e-01
8.284249999999999670e-01
8.292310000000000514e-01
8.300370000000000248e-01
8.284249999999999670e-01
8.316480000000000539e-01
8.300370000000000248e-01
8.276189999999999936e-01
8.316480000000000539e-01
8.308419999999999694e-01
8.300370000000000248e-01
8.308419999999999694e-01
8.316480000000000539e-01
8.348719999999999475e-01
8.284249999999999670e-01
8.300370000000000248e-01
8.292310000000000514e-01
8.308419999999999694e-01
8.316480000000000539e-01
8.300370000000000248e-01
8.308419999999999694e-01
8.316480000000000539e-01
8.284249999999999670e-01
8.332600000000000007e-01
8.292310000000000514e-01
8.364840000000000053e-01
8.316480000000000539e-01
8.332600000000000007e-01
8.308419999999999694e-01
8.292310000000000514e-01
8.276189999999999936e-01
8.276189999999999936e-01
8.316480000000000539e-01
8.308419999999999694e-01
8.324540000000000273e-01
8.308419999999999694e-01
8.340659999999999741e-01
8.348719999999999475e-01
8.324540000000000273e-01
8.356780000000000319e-01
8.356780000000000319e-01
8.324540000000000273e-01
8.324540000000000273e-01
8.316480000000000539e-01
8.308419999999999694e-01
8.340659999999999741e-01
8.308419999999999694e-01
8.292310000000000514e-01
8.211720000000000130e-01
8.308419999999999694e-01
8.308419999999999694e-01
8.308419999999999694e-01
8.348719999999999475e-01
8.332600000000000007e-01
8.348719999999999475e-01
8.332600000000000007e-01
8.308419999999999694e-01
8.340659999999999741e-01
8.340659999999999741e-01
8.340659999999999741e-01
8.340659999999999741e-01
8.389010000000000078e-01
8.340659999999999741e-01
8.348719999999999475e-01
8.372889999999999500e-01
8.356780000000000319e-01
8.340659999999999741e-01
8.332600000000000007e-01
8.372889999999999500e-01
8.356780000000000319e-01
8.340659999999999741e-01
8.300370000000000248e-01
8.389010000000000078e-01
8.356780000000000319e-01
8.348719999999999475e-01
8.356780000000000319e-01
8.380950000000000344e-01
8.340659999999999741e-01
8.348719999999999475e-01
8.332600000000000007e-01
8.340659999999999741e-01
8.348719999999999475e-01
8.308419999999999694e-01
8.292310000000000514e-01
8.276189999999999936e-01
8.316480000000000539e-01
8.276189999999999936e-01
8.276189999999999936e-01
8.260070000000000467e-01
8.268130000000000202e-01
8.276189999999999936e-01
8.276189999999999936e-01
8.284249999999999670e-01
8.308419999999999694e-01
8.284249999999999670e-01
8.292310000000000514e-01
8.300370000000000248e-01
8.308419999999999694e-01
8.284249999999999670e-01
8.260070000000000467e-01
8.300370000000000248e-01
8.292310000000000514e-01
8.243960000000000177e-01
8.252009999999999623e-01
8.284249999999999670e-01
8.324540000000000273e-01
8.340659999999999741e-01
8.372889999999999500e-01
8.445420000000000149e-01
8.509889999999999954e-01
8.574359999999999760e-01
8.566300000000000026e-01
8.630769999999999831e-01
8.727470000000000505e-01
8.735530000000000239e-01
8.800000000000000044e-01
8.783879999999999466e-01
8.767770000000000286e-01
8.767770000000000286e-01
8.751649999999999707e-01
8.695239999999999636e-01
8.477660000000000196e-01
8.252009999999999623e-01
7.921610000000000040e-01
7.760439999999999561e-01
7.695969999999999756e-01
7.712090000000000334e-01
7.712090000000000334e-01
7.623440000000000216e-01
7.534800000000000386e-01
7.470329999999999471e-01
7.502560000000000340e-01
7.583149999999999613e-01
7.631499999999999950e-01
7.695969999999999756e-01
7.760439999999999561e-01
7.792670000000000430e-01
7.841029999999999944e-01
7.889380000000000281e-01
8.018319999999999892e-01
8.050549999999999651e-01
8.106959999999999722e-01
8.163369999999999793e-01
8.179490000000000371e-01
8.348719999999999475e-01
8.252009999999999623e-01
8.300370000000000248e-01
8.284249999999999670e-01
8.276189999999999936e-01
8.276189999999999936e-01
8.316480000000000539e-01
8.316480000000000539e-01
8.348719999999999475e-01
8.340659999999999741e-01
8.380950000000000344e-01
8.356780000000000319e-01
8.356780000000000319e-01
8.372889999999999500e-01
8.372889999999999500e-01
8.397069999999999812e-01
8.389010000000000078e-01
8.389010000000000078e-01
8.380950000000000344e-01
8.389010000000000078e-01
8.437360000000000415e-01
8.372889999999999500e-01
8.413190000000000390e-01
8.372889999999999500e-01
8.397069999999999812e-01
8.405129999999999546e-01
8.437360000000000415e-01
8.380950000000000344e-01
8.405129999999999546e-01
8.445420000000000149e-01
8.445420000000000149e-01
8.405129999999999546e-01
8.437360000000000415e-01
8.429299999999999571e-01
8.445420000000000149e-01
8.453479999999999883e-01
8.437360000000000415e-01
8.453479999999999883e-01
8.477660000000000196e-01
8.469600000000000461e-01
8.501830000000000220e-01
8.534070000000000267e-01
8.485709999999999642e-01
8.485709999999999642e-01
8.485709999999999642e-01
8.485709999999999642e-01
8.550179999999999447e-01
8.542119999999999713e-01
8.558240000000000292e-01
8.534070000000000267e-01
8.534070000000000267e-01
8.566300000000000026e-01
8.550179999999999447e-01
8.574359999999999760e-01
8.582419999999999494e-01
8.566300000000000026e-01
8.622710000000000097e-01
8.574359999999999760e-01
8.606589999999999518e-01
8.622710000000000097e-01
8.646890000000000409e-01
8.662999999999999590e-01
8.703300000000000480e-01
8.662999999999999590e-01
8.711360000000000214e-01
8.719409999999999661e-01
8.743589999999999973e-01
8.743589999999999973e-01
8.800000000000000044e-01
8.808059999999999778e-01
8.872529999999999584e-01
8.808059999999999778e-01
8.848350000000000382e-01
8.824180000000000357e-01
8.824180000000000357e-01
8.840289999999999537e-01
8.840289999999999537e-01
8.840289999999999537e-01
8.864469999999999850e-01
8.840289999999999537e-01
8.848350000000000382e-01
8.856410000000000116e-01
8.824180000000000357e-01
8.888639999999999874e-01
8.856410000000000116e-01
8.832229999999999803e-01
8.840289999999999537e-01
8.856410000000000116e-01
8.848350000000000382e-01
8.816119999999999512e-01
8.791940000000000310e-01
8.791940000000000310e-01
8.711360000000000214e-01
8.767770000000000286e-01
8.711360000000000214e-01
8.654950000000000143e-01
8.662999999999999590e-01
8.654950000000000143e-01
8.582419999999999494e-01
8.566300000000000026e-01
8.542119999999999713e-01
8.550179999999999447e-01
8.493770000000000486e-01
8.477660000000000196e-01
8.437360000000000415e-01
8.445420000000000149e-01
8.429299999999999571e-01
8.405129999999999546e-01
8.389010000000000078e-01
8.413190000000000390e-01
8.348719999999999475e-01
8.380950000000000344e-01
8.340659999999999741e-01
8.340659999999999741e-01
8.316480000000000539e-01
8.332600000000000007e-01
8.340659999999999741e-01
8.340659999999999741e-01
8.324540000000000273e-01
8.332600000000000007e-01
8.348719999999999475e-01
8.284249999999999670e-01
8.316480000000000539e-01
8.308419999999999694e-01
8.292310000000000514e-01
8.316480000000000539e-01
8.292310000000000514e-01
8.292310000000000514e-01
8.292310000000000514e-01
8.308419999999999694e-01
8.276189999999999936e-01
8.308419999999999694e-01
8.316480000000000539e-01
8.324540000000000273e-01
8.348719999999999475e-01
8.284249999999999670e-01
8.332600000000000007e-01
8.308419999999999694e-01
8.324540000000000273e-01
8.332600000000000007e-01
8.356780000000000319e-01
8.340659999999999741e-01
8.316480000000000539e-01
8.316480000000000539e-01
8.308419999999999694e-01
8.324540000000000273e-01
8.316480000000000539e-01
8.316480000000000539e-01
8.324540000000000273e-01
8.332600000000000007e-01
8.187550000000000106e-01
8.324540000000000273e-01
8.324540000000000273e-01
8.284249999999999670e-01
8.356780000000000319e-01
8.308419999999999694e-01
8.324540000000000273e-01
8.340659999999999741e-01
8.308419999999999694e-01
8.348719999999999475e-01
8.284249999999999670e-01
8.324540000000000273e-01
8.308419999999999694e-01
8.292310000000000514e-01
8.324540000000000273e-01
8.437360000000000415e-01
8.332600000000000007e-01
8.300370000000000248e-01
8.316480000000000539e-01
8.284249999999999670e-01
8.292310000000000514e-01
8.308419999999999694e-01
8.340659999999999741e-01
8.316480000000000539e-01
8.324540000000000273e-01
8.340659999999999741e-01
8.324540000000000273e-01
8.292310000000000514e-01
8.316480000000000539e-01
8.332600000000000007e-01
8.332600000000000007e-01
8.308419999999999694e-01
8.356780000000000319e-01
8.332600000000000007e-01
8.340659999999999741e-01
8.308419999999999694e-01
8.292310000000000514e-01
8.324540000000000273e-01
8.316480000000000539e-01
8.348719999999999475e-01
8.324540000000000273e-01
8.340659999999999741e-01
8.348719999999999475e-01
8.324540000000000273e-01
8.348719999999999475e-01
8.308419999999999694e-01
8.340659999999999741e-01
8.348719999999999475e-01
8.340659999999999741e-01
8.308419999999999694e-01
8.324540000000000273e-01
8.348719999999999475e-01
8.340659999999999741e-01
8.340659999999999741e-01
8.501830000000000220e-01
8.324540000000000273e-01
8.356780000000000319e-01
8.308419999999999694e-01
8.340659999999999741e-01
8.316480000000000539e-01
8.292310000000000514e-01
8.340659999999999741e-01
8.308419999999999694e-01
8.364840000000000053e-01
8.324540000000000273e-01
8.324540000000000273e-01
8.276189999999999936e-01
8.308419999999999694e-01
8.340659999999999741e-01
8.316480000000000539e-01
8.348719999999999475e-01
8.380950000000000344e-01
8.316480000000000539e-01
8.308419999999999694e-01
8.380950000000000344e-01
8.308419999999999694e-01
8.340659999999999741e-01
8.340659999999999741e-01
8.284249999999999670e-01
8.316480000000000539e-01
8.324540000000000273e-01
8.211720000000000130e-01
8.348719999999999475e-01
8.300370000000000248e-01
8.332600000000000007e-01
8.284249999999999670e-01
8.340659999999999741e-01
8.284249999999999670e-01
8.300370000000000248e-01
8.316480000000000539e-01
8.316480000000000539e-01
8.276189999999999936e-01
8.276189999999999936e-01
8.316480000000000539e-01
8.300370000000000248e-01
8.316480000000000539e-01
8.316480000000000539e-01
8.356780000000000319e-01
8.340659999999999741e-01
8.308419999999999694e-01
8.316480000000000539e-01
8.332600000000000007e-01
8.324540000000000273e-01
8.348719999999999475e-01
8.332600000000000007e-01
8.308419999999999694e-01
8.308419999999999694e-01
8.324540000000000273e-01
8.284249999999999670e-01
8.308419999999999694e-01
8.324540000000000273e-01
8.332600000000000007e-01
8.332600000000000007e-01
8.340659999999999741e-01
8.364840000000000053e-01
8.324540000000000273e-01
8.332600000000000007e-01
8.348719999999999475e-01
8.316480000000000539e-01
8.340659999999999741e-01
8.324540000000000273e-01
8.316480000000000539e-01
8.324540000000000273e-01
8.348719999999999475e-01
8.364840000000000053e-01
8.316480000000000539e-01
8.332600000000000007e-01
8.380950000000000344e-01
8.356780000000000319e-01
8.356780000000000319e-01
8.364840000000000053e-01
8.380950000000000344e-01
8.324540000000000273e-01
8.123080000000000300e-01
8.429299999999999571e-01
8.372889999999999500e-01
8.348719999999999475e-01
8.389010000000000078e-01
8.340659999999999741e-01
8.364840000000000053e-01
8.380950000000000344e-01
8.356780000000000319e-01
8.340659999999999741e-01
8.380950000000000344e-01
8.413190000000000390e-01
8.340659999999999741e-01
8.356780000000000319e-01
8.380950000000000344e-01
8.348719999999999475e-01
8.356780000000000319e-01
8.389010000000000078e-01
8.389010000000000078e-01
8.429299999999999571e-01
8.372889999999999500e-01
8.356780000000000319e-01
8.413190000000000390e-01
8.380950000000000344e-01
8.372889999999999500e-01
8.340659999999999741e-01
8.372889999999999500e-01
8.300370000000000248e-01
8.300370000000000248e-01
8.284249999999999670e-01
8.316480000000000539e-01
8.316480000000000539e-01
8.397069999999999812e-01
8.380950000000000344e-01
8.340659999999999741e-01
8.356780000000000319e-01
8.324540000000000273e-01
8.324540000000000273e-01
8.340659999999999741e-01
8.308419999999999694e-01
8.348719999999999475e-01
8.348719999999999475e-01
8.316480000000000539e-01
8.300370000000000248e-01
8.276189999999999936e-01
8.284249999999999670e-01
8.308419999999999694e-01
8.300370000000000248e-01
8.340659999999999741e-01
8.380950000000000344e-01
8.405129999999999546e-01
8.461539999999999617e-01
8.574359999999999760e-01
8.550179999999999447e-01
8.646890000000000409e-01
8.679120000000000168e-01
8.759710000000000552e-01
8.824180000000000357e-01
8.888639999999999874e-01
8.896699999999999608e-01
8.832229999999999803e-01
8.824180000000000357e-01
8.783879999999999466e-01
8.727470000000000505e-01
8.598529999999999784e-01
8.356780000000000319e-01
8.082780000000000520e-01
7.841029999999999944e-01
7.695969999999999756e-01
7.639559999999999684e-01
7.631499999999999950e-01
7.639559999999999684e-01
7.510620000000000074e-01
7.470329999999999471e-01
7.438099999999999712e-01
7.526739999999999542e-01
7.607329999999999925e-01
7.679850000000000287e-01
7.728209999999999802e-01
7.776560000000000139e-01
7.841029999999999944e-01
7.929669999999999774e-01
8.002200000000000424e-01
8.082780000000000520e-01
8.155310000000000059e-01
8.252009999999999623e-01
8.276189999999999936e-01
8.252009999999999623e-01
8.300370000000000248e-01
8.324540000000000273e-01
8.340659999999999741e-01
8.364840000000000053e-01
8.364840000000000053e-01
8.389010000000000078e-01
8.340659999999999741e-01
8.405129999999999546e-01
8.413190000000000390e-01
8.413190000000000390e-01
8.389010000000000078e-01
8.421250000000000124e-01
8.405129999999999546e-01
8.397069999999999812e-01
8.389010000000000078e-01
8.413190000000000390e-01
8.421250000000000124e-01
8.606589999999999518e-01
8.421250000000000124e-01
8.445420000000000149e-01
8.413190000000000390e-01
8.453479999999999883e-01
8.485709999999999642e-01
8.469600000000000461e-01
8.493770000000000486e-01
8.485709999999999642e-01
8.542119999999999713e-01
8.493770000000000486e-01
8.469600000000000461e-01
8.493770000000000486e-01
8.501830000000000220e-01
8.485709999999999642e-01
8.485709999999999642e-01
8.453479999999999883e-01
8.501830000000000220e-01
8.453479999999999883e-01
8.485709999999999642e-01
8.517949999999999688e-01
8.509889999999999954e-01
8.534070000000000267e-01
8.509889999999999954e-01
8.517949999999999688e-01
8.558240000000000292e-01
8.526010000000000533e-01
8.566300000000000026e-01
8.542119999999999713e-01
8.566300000000000026e-01
8.534070000000000267e-01
8.582419999999999494e-01
8.566300000000000026e-01
8.606589999999999518e-01
8.590480000000000338e-01
8.606589999999999518e-01
8.630769999999999831e-01
8.622710000000000097e-01
8.622710000000000097e-01
8.654950000000000143e-01
8.638829999999999565e-01
8.671060000000000434e-01
8.800000000000000044e-01
8.687179999999999902e-01
8.703300000000000480e-01
8.743589999999999973e-01
8.735530000000000239e-01
8.695239999999999636e-01
8.727470000000000505e-01
8.767770000000000286e-01
8.800000000000000044e-01
8.775819999999999732e-01
8.824180000000000357e-01
8.824180000000000357e-01
8.832229999999999803e-01
8.856410000000000116e-01
8.856410000000000116e-01
8.880590000000000428e-01
8.856410000000000116e-01
8.872529999999999584e-01
8.888639999999999874e-01
8.888639999999999874e-01
8.888639999999999874e-01
8.856410000000000116e-01
8.920879999999999921e-01
8.888639999999999874e-01
8.880590000000000428e-01
8.864469999999999850e-01
8.880590000000000428e-01
8.896699999999999608e-01
8.888639999999999874e-01
8.856410000000000116e-01
8.832229999999999803e-01
8.824180000000000357e-01
8.775819999999999732e-01
8.832229999999999803e-01
8.735530000000000239e-01
8.703300000000000480e-01
8.679120000000000168e-01
8.687179999999999902e-01
8.614650000000000363e-01
8.638829999999999565e-01
8.582419999999999494e-01
8.550179999999999447e-01
8.534070000000000267e-01
8.501830000000000220e-01
8.485709999999999642e-01
8.477660000000000196e-01
8.445420000000000149e-01
8.445420000000000149e-01
8.389010000000000078e-01
8.380950000000000344e-01
8.380950000000000344e-01
8.364840000000000053e-01
8.380950000000000344e-01
8.364840000000000053e-01
8.340659999999999741e-01
8.364840000000000053e-01
8.348719999999999475e-01
8.380950000000000344e-01
8.300370000000000248e-01
8.340659999999999741e-01
8.308419999999999694e-01
8.324540000000000273e-01
8.308419999999999694e-01
8.300370000000000248e-01
8.276189999999999936e-01
8.348719999999999475e-01
8.340659999999999741e-01
8.139189999999999481e-01
8.308419999999999694e-01
8.316480000000000539e-01
8.316480000000000539e-01
8.356780000000000319e-01
8.308419999999999694e-01
8.340659999999999741e-01
8.332600000000000007e-01
8.308419999999999694e-01
8.316480000000000539e-01
8.356780000000000319e-01
8.308419999999999694e-01
8.308419999999999694e-01
8.260070000000000467e-01
8.082780000000000520e-01
8.340659999999999741e-01
8.292310000000000514e-01
8.292310000000000514e-01
8.316480000000000539e-01
8.284249999999999670e-01
8.300370000000000248e-01
8.308419999999999694e-01
8.300370000000000248e-01
8.300370000000000248e-01
8.308419999999999694e-01
8.308419999999999694e-01
8.316480000000000539e-01
8.308419999999999694e-01
8.348719999999999475e-01
8.284249999999999670e-01
8.332600000000000007e-01
8.308419999999999694e-01
8.324540000000000273e-01
8.276189999999999936e-01
8.332600000000000007e-01
8.308419999999999694e-01
8.316480000000000539e-01
8.332600000000000007e-01
8.332600000000000007e-01
8.316480000000000539e-01
8.292310000000000514e-01
8.348719999999999475e-01
8.364840000000000053e-01
8.332600000000000007e-01
8.308419999999999694e-01
8.316480000000000539e-01
8.324540000000000273e-01
8.324540000000000273e-01
8.308419999999999694e-01
8.372889999999999500e-01
8.308419999999999694e-01
8.308419999999999694e-01
8.340659999999999741e-01
8.348719999999999475e-01
8.340659999999999741e-01
8.356780000000000319e-01
8.324540000000000273e-01
8.364840000000000053e-01
8.316480000000000539e-01
8.364840000000000053e-01
8.380950000000000344e-01
8.332600000000000007e-01
8.300370000000000248e-01
8.316480000000000539e-01
8.348719999999999475e-01
8.380950000000000344e-01
8.348719999999999475e-01
8.300370000000000248e-01
8.324540000000000273e-01
8.308419999999999694e-01
8.340659999999999741e-01
8.332600000000000007e-01
8.340659999999999741e-01
8.332600000000000007e-01
8.300370000000000248e-01
8.292310000000000514e-01
8.324540000000000273e-01
8.356780000000000319e-01
8.300370000000000248e-01
8.316480000000000539e-01
8.284249999999999670e-01
8.316480000000000539e-01
8.324540000000000273e-01
8.316480000000000539e-01
8.308419999999999694e-01
8.308419999999999694e-01
8.348719999999999475e-01
8.324540000000000273e-01
8.316480000000000539e-01
8.324540000000000273e-01
8.332600000000000007e-01
8.348719999999999475e-01
8.380950000000000344e-01
8.308419999999999694e-01
8.316480000000000539e-01
8.316480000000000539e-01
8.332600000000000007e-01
8.316480000000000539e-01
8.243960000000000177e-01
8.308419999999999694e-01
8.308419999999999694e-01
8.332600000000000007e-01
8.308419999999999694e-01
8.348719999999999475e-01
8.348719999999999475e-01
8.316480000000000539e-01
8.308419999999999694e-01
8.316480000000000539e-01
8.332600000000000007e-01
8.372889999999999500e-01
8.292310000000000514e-01
8.356780000000000319e-01
8.332600000000000007e-01
8.332600000000000007e-01
8.316480000000000539e-01
8.308419999999999694e-01
8.364840000000000053e-01
8.340659999999999741e-01
8.340659999999999741e-01
8.324540000000000273e-01
8.324540000000000273e-01
8.356780000000000319e-01
8.308419999999999694e-01
8.284249999999999670e-01
8.316480000000000539e-01
8.324540000000000273e-01
8.308419999999999694e-01
8.332600000000000007e-01
8.356780000000000319e-01
8.316480000000000539e-01
8.356780000000000319e-01
8.308419999999999694e-01
8.308419999999999694e-01
8.284249999999999670e-01
8.300370000000000248e-01
8.324540000000000273e-01
8.292310000000000514e-01
8.300370000000000248e-01
8.284249999999999670e-01
8.324540000000000273e-01
8.437360000000000415e-01
8.308419999999999694e-01
8.316480000000000539e-01
8.316480000000000539e-01
8.348719999999999475e-01
8.389010000000000078e-01
8.348719999999999475e-01
8.340659999999999741e-01
8.372889999999999500e-01
8.364840000000000053e-01
8.372889999999999500e-01
8.356780000000000319e-01
8.364840000000000053e-01
8.380950000000000344e-01
8.372889999999999500e-01
8.340659999999999741e-01
8.380950000000000344e-01
8.356780000000000319e-01
8.356780000000000319e-01
8.356780000000000319e-01
8.429299999999999571e-01
8.364840000000000053e-01
8.340659999999999741e-01
8.235900000000000443e-01
8.372889999999999500e-01
8.389010000000000078e-01
8.372889999999999500e-01
8.380950000000000344e-01
8.380950000000000344e-01
8.380950000000000344e-01
8.372889999999999500e-01
8.356780000000000319e-01
8.380950000000000344e-01
8.380950000000000344e-01
8.356780000000000319e-01
8.356780000000000319e-01
8.316480000000000539e-01
8.316480000000000539e-01
8.276189999999999936e-01
8.292310000000000514e-01
8.276189999999999936e-01
8.308419999999999694e-01
8.332600000000000007e-01
8.316480000000000539e-01
8.332600000000000007e-01
8.276189999999999936e-01
8.316480000000000539e-01
8.348719999999999475e-01
8.316480000000000539e-01
8.276189999999999936e-01
8.284249999999999670e-01
8.284249999999999670e-01
8.340659999999999741e-01
8.324540000000000273e-01
8.292310000000000514e-01
8.292310000000000514e-01
8.292310000000000514e-01
8.324540000000000273e-01
8.316480000000000539e-01
8.356780000000000319e-01
8.405129999999999546e-01
8.477660000000000196e-01
8.469600000000000461e-01
8.534070000000000267e-01
8.590480000000000338e-01
8.695239999999999636e-01
8.743589999999999973e-01
8.824180000000000357e-01
8.880590000000000428e-01
8.856410000000000116e-01
8.816119999999999512e-01
8.856410000000000116e-01
8.791940000000000310e-01
8.751649999999999707e-01
8.687179999999999902e-01
8.445420000000000149e-01
8.163369999999999793e-01
7.897440000000000015e-01
7.639559999999999684e-01
7.647620000000000529e-01
7.679850000000000287e-01
7.639559999999999684e-01
7.567030000000000145e-01
7.470329999999999471e-01
7.470329999999999471e-01
7.526739999999999542e-01
7.599270000000000191e-01
7.687910000000000021e-01
7.744320000000000093e-01
7.816849999999999632e-01
7.808789999999999898e-01
7.889380000000000281e-01
7.986079999999999846e-01
8.050549999999999651e-01
8.131140000000000034e-01
8.171429999999999527e-01
8.252009999999999623e-01
8.300370000000000248e-01
8.276189999999999936e-01
8.316480000000000539e-01
8.316480000000000539e-01
8.308419999999999694e-01
8.340659999999999741e-01
8.348719999999999475e-01
8.364840000000000053e-01
8.348719999999999475e-01
8.397069999999999812e-01
8.413190000000000390e-01
8.421250000000000124e-01
8.372889999999999500e-01
8.372889999999999500e-01
8.421250000000000124e-01
8.405129999999999546e-01
8.380950000000000344e-01
8.405129999999999546e-01
8.405129999999999546e-01
8.405129999999999546e-01
8.429299999999999571e-01
8.429299999999999571e-01
8.405129999999999546e-01
8.485709999999999642e-01
8.429299999999999571e-01
8.421250000000000124e-01
8.429299999999999571e-01
8.445420000000000149e-01
8.461539999999999617e-01
8.453479999999999883e-01
8.437360000000000415e-01
8.469600000000000461e-01
8.477660000000000196e-01
8.477660000000000196e-01
8.469600000000000461e-01
8.469600000000000461e-01
8.493770000000000486e-01
8.453479999999999883e-01
8.453479999999999883e-01
8.485709999999999642e-01
8.485709999999999642e-01
8.485709999999999642e-01
8.493770000000000486e-01
8.485709999999999642e-01
8.558240000000000292e-01
8.517949999999999688e-01
8.566300000000000026e-01
8.534070000000000267e-01
8.517949999999999688e-01
8.558240000000000292e-01
8.534070000000000267e-01
8.574359999999999760e-01
8.606589999999999518e-01
8.662999999999999590e-01
8.622710000000000097e-01
8.622710000000000097e-01
8.348719999999999475e-01
8.662999999999999590e-01
8.654950000000000143e-01
8.646890000000000409e-01
8.671060000000000434e-01
8.695239999999999636e-01
8.703300000000000480e-01
8.751649999999999707e-01
8.695239999999999636e-01
8.767770000000000286e-01
8.727470000000000505e-01
8.775819999999999732e-01
8.783879999999999466e-01
8.783879999999999466e-01
8.824180000000000357e-01
8.832229999999999803e-01
8.824180000000000357e-01
8.816119999999999512e-01
8.824180000000000357e-01
8.824180000000000357e-01
8.872529999999999584e-01
8.856410000000000116e-01
8.840289999999999537e-01
8.912820000000000187e-01
8.880590000000000428e-01
8.896699999999999608e-01
8.896699999999999608e-01
8.590480000000000338e-01
8.832229999999999803e-01
8.864469999999999850e-01
8.888639999999999874e-01
8.840289999999999537e-01
8.880590000000000428e-01
8.856410000000000116e-01
8.872529999999999584e-01
8.791940000000000310e-01
8.800000000000000044e-01
8.767770000000000286e-01
8.783879999999999466e-01
8.735530000000000239e-01
8.687179999999999902e-01
8.703300000000000480e-01
8.582419999999999494e-01
8.614650000000000363e-01
8.566300000000000026e-01
8.566300000000000026e-01
8.550179999999999447e-01
8.509889999999999954e-01
8.485709999999999642e-01
8.461539999999999617e-01
8.461539999999999617e-01
8.437360000000000415e-01
8.413190000000000390e-01
8.405129999999999546e-01
8.372889999999999500e-01
8.372889999999999500e-01
8.372889999999999500e-01
8.380950000000000344e-01
8.348719999999999475e-01
8.356780000000000319e-01
8.332600000000000007e-01
8.364840000000000053e-01
8.364840000000000053e-01
8.340659999999999741e-01
8.300370000000000248e-01
8.340659999999999741e-01
8.348719999999999475e-01
8.308419999999999694e-01
8.340659999999999741e-01
8.356780000000000319e-01
8.340659999999999741e-01
8.332600000000000007e-01
8.308419999999999694e-01
8.316480000000000539e-01
8.300370000000000248e-01
8.316480000000000539e-01
8.364840000000000053e-01
8.324540000000000273e-01
8.348719999999999475e-01
8.324540000000000273e-01
8.316480000000000539e-01
8.316480000000000539e-01
8.308419999999999694e-01
8.316480000000000539e-01
8.332600000000000007e-01
8.340659999999999741e-01
8.324540000000000273e-01
8.348719999999999475e-01
8.292310000000000514e-01
8.364840000000000053e-01
8.308419999999999694e-01
8.308419999999999694e-01
8.292310000000000514e-01
8.308419999999999694e-01
8.308419999999999694e-01
8.348719999999999475e-01
8.324540000000000273e-01
8.308419999999999694e-01
8.308419999999999694e-01
8.372889999999999500e-01
8.340659999999999741e-01
8.332600000000000007e-01
8.356780000000000319e-01
8.340659999999999741e-01
8.324540000000000273e-01
8.340659999999999741e-01
8.340659999999999741e-01
8.348719999999999475e-01
8.453479999999999883e-01
8.340659999999999741e-01
8.316480000000000539e-01
8.340659999999999741e-01
8.324540000000000273e-01
8.340659999999999741e-01
8.340659999999999741e-01
8.348719999999999475e-01
8.340659999999999741e-01
8.308419999999999694e-01
8.364840000000000053e-01
8.348719999999999475e-01
8.316480000000000539e-01
8.340659999999999741e-01
8.332600000000000007e-01
8.364840000000000053e-01
8.292310000000000514e-01
8.316480000000000539e-01
8.364840000000000053e-01
8.356780000000000319e-01
8.364840000000000053e-01
8.308419999999999694e-01
8.340659999999999741e-01
8.292310000000000514e-01
8.308419999999999694e-01
8.340659999999999741e-01
8.340659999999999741e-01
8.332600000000000007e-01
8.348719999999999475e-01
8.276189999999999936e-01
8.308419999999999694e-01
8.372889999999999500e-01
8.372889999999999500e-01
8.316480000000000539e-01
8.348719999999999475e-01
8.380950000000000344e-01
8.332600000000000007e-01
8.308419999999999694e-01
8.348719999999999475e-01
8.348719999999999475e-01
8.300370000000000248e-01
8.348719999999999475e-01
8.332600000000000007e-01
8.340659999999999741e-01
8.340659999999999741e-01
8.332600000000000007e-01
8.324540000000000273e-01
8.292310000000000514e-01
8.316480000000000539e-01
8.308419999999999694e-01
8.340659999999999741e-01
8.332600000000000007e-01
8.316480000000000539e-01
8.324540000000000273e-01
8.316480000000000539e-01
8.316480000000000539e-01
8.308419999999999694e-01
8.324540000000000273e-01
8.292310000000000514e-01
8.356780000000000319e-01
8.308419999999999694e-01
8.308419999999999694e-01
8.300370000000000248e-01
8.300370000000000248e-01
8.308419999999999694e-01
8.308419999999999694e-01
8.276189999999999936e-01
8.276189999999999936e-01
8.276189999999999936e-01
8.292310000000000514e-01
8.300370000000000248e-01
8.413190000000000390e-01
8.348719999999999475e-01
8.316480000000000539e-01
8.316480000000000539e-01
8.316480000000000539e-01
8.316480000000000539e-01
8.308419999999999694e-01
8.276189999999999936e-01
8.308419999999999694e-01
8.308419999999999694e-01
8.316480000000000539e-01
8.340659999999999741e-01
8.340659999999999741e-01
8.340659999999999741e-01
8.348719999999999475e-01
8.364840000000000053e-01
8.340659999999999741e-01
8.308419999999999694e-01
8.308419999999999694e-01
8.340659999999999741e-01
8.356780000000000319e-01
8.308419999999999694e-01
8.316480000000000539e-01
8.324540000000000273e-01
8.405129999999999546e-01
8.380950000000000344e-01
8.380950000000000344e-01
8.389010000000000078e-01
8.348719999999999475e-01
8.380950000000000344e-01
8.389010000000000078e-01
8.405129999999999546e-01
8.389010000000000078e-01
8.413190000000000390e-01
8.405129999999999546e-01
8.380950000000000344e-01
8.372889999999999500e-01
8.405129999999999546e-01
8.389010000000000078e-01
8.397069999999999812e-01
8.389010000000000078e-01
8.389010000000000078e-01
8.405129999999999546e-01
8.405129999999999546e-01
8.397069999999999812e-01
8.356780000000000319e-01
8.372889999999999500e-01
8.340659999999999741e-01
8.308419999999999694e-01
8.372889999999999500e-01
8.348719999999999475e-01
8.348719999999999475e-01
8.340659999999999741e-01
8.340659999999999741e-01
8.340659999999999741e-01
8.348719999999999475e-01
8.348719999999999475e-01
8.348719999999999475e-01
8.316480000000000539e-01
8.324540000000000273e-01
8.340659999999999741e-01
8.356780000000000319e-01
8.292310000000000514e-01
8.276189999999999936e-01
8.284249999999999670e-01
8.316480000000000539e-01
8.340659999999999741e-01
8.372889999999999500e-01
8.316480000000000539e-01
8.316480000000000539e-01
8.260070000000000467e-01
8.292310000000000514e-01
8.316480000000000539e-01
8.340659999999999741e-01
8.260070000000000467e-01
8.340659999999999741e-01
8.348719999999999475e-01
8.348719999999999475e-01
8.437360000000000415e-01
8.461539999999999617e-01
8.526010000000000533e-01
8.534070000000000267e-01
8.574359999999999760e-01
8.671060000000000434e-01
8.711360000000000214e-01
8.735530000000000239e-01
8.759710000000000552e-01
8.751649999999999707e-01
8.743589999999999973e-01
8.775819999999999732e-01
8.808059999999999778e-01
8.743589999999999973e-01
8.566300000000000026e-01
8.332600000000000007e-01
8.002200000000000424e-01
7.832970000000000210e-01
7.760439999999999561e-01
7.832970000000000210e-01
7.768500000000000405e-01
7.671790000000000553e-01
7.615380000000000482e-01
7.583149999999999613e-01
7.567030000000000145e-01
7.623440000000000216e-01
7.671790000000000553e-01
7.768500000000000405e-01
7.841029999999999944e-01
7.865199999999999969e-01
7.905489999999999462e-01
7.978020000000000111e-01
8.058610000000000495e-01
8.082780000000000520e-01
8.147250000000000325e-01
8.219779999999999864e-01
8.268130000000000202e-01
8.397069999999999812e-01
8.324540000000000273e-01
8.348719999999999475e-01
8.348719999999999475e-01
8.348719999999999475e-01
8.340659999999999741e-01
8.372889999999999500e-01
8.380950000000000344e-01
8.421250000000000124e-01
8.372889999999999500e-01
8.380950000000000344e-01
8.356780000000000319e-01
8.405129999999999546e-01
8.405129999999999546e-01
8.380950000000000344e-01
8.372889999999999500e-01
8.372889999999999500e-01
8.421250000000000124e-01
8.429299999999999571e-01
8.405129999999999546e-01
8.389010000000000078e-01
8.405129999999999546e-01
8.437360000000000415e-01
8.445420000000000149e-01
8.429299999999999571e-01
8.445420000000000149e-01
8.477660000000000196e-01
8.493770000000000486e-01
8.485709999999999642e-01
8.477660000000000196e-01
8.453479999999999883e-01
8.413190000000000390e-01
8.501830000000000220e-01
8.501830000000000220e-01
8.509889999999999954e-01
8.501830000000000220e-01
8.534070000000000267e-01
8.517949999999999688e-01
8.509889999999999954e-01
8.501830000000000220e-01
8.485709999999999642e-01
8.534070000000000267e-01
8.550179999999999447e-01
8.534070000000000267e-01
8.558240000000000292e-01
8.574359999999999760e-01
8.550179999999999447e-01
8.550179999999999447e-01
8.566300000000000026e-01
8.574359999999999760e-01
8.582419999999999494e-01
8.598529999999999784e-01
8.614650000000000363e-01
8.566300000000000026e-01
8.598529999999999784e-01
8.646890000000000409e-01
8.638829999999999565e-01
8.646890000000000409e-01
8.614650000000000363e-01
8.638829999999999565e-01
8.671060000000000434e-01
8.695239999999999636e-01
8.679120000000000168e-01
8.719409999999999661e-01
8.727470000000000505e-01
8.767770000000000286e-01
8.767770000000000286e-01
8.832229999999999803e-01
8.775819999999999732e-01
8.816119999999999512e-01
8.872529999999999584e-01
8.791940000000000310e-01
8.832229999999999803e-01
8.832229999999999803e-01
8.824180000000000357e-01
8.824180000000000357e-01
8.848350000000000382e-01
8.840289999999999537e-01
8.896699999999999608e-01
8.904760000000000453e-01
8.888639999999999874e-01
8.896699999999999608e-01
8.896699999999999608e-01
8.872529999999999584e-01
8.920879999999999921e-01
8.896699999999999608e-01
8.824180000000000357e-01
8.840289999999999537e-01
8.872529999999999584e-01
8.856410000000000116e-01
8.832229999999999803e-01
8.840289999999999537e-01
8.800000000000000044e-01
8.751649999999999707e-01
8.743589999999999973e-01
8.687179999999999902e-01
8.679120000000000168e-01
8.671060000000000434e-01
8.622710000000000097e-01
8.630769999999999831e-01
8.574359999999999760e-01
8.542119999999999713e-01
8.526010000000000533e-01
8.501830000000000220e-01
8.469600000000000461e-01
8.469600000000000461e-01
8.445420000000000149e-01
8.437360000000000415e-01
8.405129999999999546e-01
8.389010000000000078e-01
8.332600000000000007e-01
8.372889999999999500e-01
8.397069999999999812e-01
8.356780000000000319e-01
8.364840000000000053e-01
8.380950000000000344e-01
8.372889999999999500e-01
8.332600000000000007e-01
8.340659999999999741e-01
8.348719999999999475e-01
8.324540000000000273e-01
8.292310000000000514e-01
8.356780000000000319e-01
8.300370000000000248e-01
8.356780000000000319e-01
8.364840000000000053e-01
8.340659999999999741e-01
8.324540000000000273e-01
8.276189999999999936e-01
8.348719999999999475e-01
8.324540000000000273e-01
8.316480000000000539e-01
8.380950000000000344e-01
8.332600000000000007e-01
8.316480000000000539e-01
8.324540000000000273e-01
8.332600000000000007e-01
8.324540000000000273e-01
8.276189999999999936e-01
8.340659999999999741e-01
8.340659999999999741e-01
8.364840000000000053e-01
8.316480000000000539e-01
8.348719999999999475e-01
8.332600000000000007e-01
8.340659999999999741e-01
8.340659999999999741e-01
8.340659999999999741e-01
8.308419999999999694e-01
8.332600000000000007e-01
8.324540000000000273e-01
8.356780000000000319e-01
8.372889999999999500e-01
8.372889999999999500e-01
8.364840000000000053e-01
8.364840000000000053e-01
8.324540000000000273e-01
8.397069999999999812e-01
8.364840000000000053e-01
8.348719999999999475e-01
8.340659999999999741e-01
8.348719999999999475e-01
8.397069999999999812e-01
8.348719999999999475e-01
8.356780000000000319e-01
8.372889999999999500e-01
8.332600000000000007e-01
8.340659999999999741e-01
8.372889999999999500e-01
8.397069999999999812e-01
8.372889999999999500e-01
8.340659999999999741e-01
8.389010000000000078e-01
8.340659999999999741e-01
8.300370000000000248e-01
8.356780000000000319e-01
8.372889999999999500e-01
8.389010000000000078e-01
8.380950000000000344e-01
8.380950000000000344e-01
8.340659999999999741e-01
8.308419999999999694e-01
8.380950000000000344e-01
8.356780000000000319e-01
8.356780000000000319e-01
8.340659999999999741e-01
8.340659999999999741e-01
8.348719999999999475e-01
8.364840000000000053e-01
8.356780000000000319e-01
8.380950000000000344e-01
8.380950000000000344e-01
8.364840000000000053e-01
8.380950000000000344e-01
8.364840000000000053e-01
8.372889999999999500e-01
8.372889999999999500e-01
8.380950000000000344e-01
8.372889999999999500e-01
8.348719999999999475e-01
8.356780000000000319e-01
8.356780000000000319e-01
8.348719999999999475e-01
8.348719999999999475e-01
8.389010000000000078e-01
8.348719999999999475e-01
8.324540000000000273e-01
8.332600000000000007e-01
8.324540000000000273e-01
8.372889999999999500e-01
8.316480000000000539e-01
8.308419999999999694e-01
8.348719999999999475e-01
8.163369999999999793e-01
8.324540000000000273e-01
8.380950000000000344e-01
8.348719999999999475e-01
8.356780000000000319e-01
8.316480000000000539e-01
8.316480000000000539e-01
8.340659999999999741e-01
8.340659999999999741e-01
8.372889999999999500e-01
8.340659999999999741e-01
8.332600000000000007e-01
8.332600000000000007e-01
8.340659999999999741e-01
8.340659999999999741e-01
8.356780000000000319e-01
8.316480000000000539e-01
8.356780000000000319e-01
8.340659999999999741e-01
8.316480000000000539e-01
8.340659999999999741e-01
8.340659999999999741e-01
8.380950000000000344e-01
8.332600000000000007e-01
8.340659999999999741e-01
8.364840000000000053e-01
8.364840000000000053e-01
8.324540000000000273e-01
8.332600000000000007e-01
8.308419999999999694e-01
8.340659999999999741e-01
8.364840000000000053e-01
8.348719999999999475e-01
8.348719999999999475e-01
8.372889999999999500e-01
8.308419999999999694e-01
8.340659999999999741e-01
8.356780000000000319e-01
8.332600000000000007e-01
8.340659999999999741e-01
8.356780000000000319e-01
8.316480000000000539e-01
8.324540000000000273e-01
8.292310000000000514e-01
8.348719999999999475e-01
8.324540000000000273e-01
8.356780000000000319e-01
8.364840000000000053e-01
8.372889999999999500e-01
8.421250000000000124e-01
8.413190000000000390e-01
8.421250000000000124e-01
8.413190000000000390e-01
8.380950000000000344e-01
8.372889999999999500e-01
8.397069999999999812e-01
8.380950000000000344e-01
8.397069999999999812e-01
8.405129999999999546e-01
8.405129999999999546e-01
8.405129999999999546e-01
8.445420000000000149e-01
8.437360000000000415e-01
8.413190000000000390e-01
8.380950000000000344e-01
8.372889999999999500e-01
8.389010000000000078e-01
8.405129999999999546e-01
8.405129999999999546e-01
8.429299999999999571e-01
8.372889999999999500e-01
8.380950000000000344e-01
8.405129999999999546e-01
8.413190000000000390e-01
8.413190000000000390e-01
8.405129999999999546e-01
8.405129999999999546e-01
8.380950000000000344e-01
8.356780000000000319e-01
8.356780000000000319e-01
8.380950000000000344e-01
8.364840000000000053e-01
8.340659999999999741e-01
8.324540000000000273e-01
8.324540000000000273e-01
8.348719999999999475e-01
8.324540000000000273e-01
8.348719999999999475e-01
8.276189999999999936e-01
8.332600000000000007e-01
8.372889999999999500e-01
8.348719999999999475e-01
8.308419999999999694e-01
8.348719999999999475e-01
8.308419999999999694e-01
8.348719999999999475e-01
8.340659999999999741e-01
8.276189999999999936e-01
8.340659999999999741e-01
8.324540000000000273e-01
8.332600000000000007e-01
8.348719999999999475e-01
8.340659999999999741e-01
8.405129999999999546e-01
8.437360000000000415e-01
8.477660000000000196e-01
8.534070000000000267e-01
8.582419999999999494e-01
8.630769999999999831e-01
8.703300000000000480e-01
8.783879999999999466e-01
8.864469999999999850e-01
8.856410000000000116e-01
8.864469999999999850e-01
8.832229999999999803e-01
8.727470000000000505e-01
8.759710000000000552e-01
8.711360000000000214e-01
8.598529999999999784e-01
8.332600000000000007e-01
7.969960000000000377e-01
7.712090000000000334e-01
7.647620000000000529e-01
7.639559999999999684e-01
7.631499999999999950e-01
7.607329999999999925e-01
7.583149999999999613e-01
7.502560000000000340e-01
7.494509999999999783e-01
7.550919999999999854e-01
7.671790000000000553e-01
7.728209999999999802e-01
7.800730000000000164e-01
7.832970000000000210e-01
7.905489999999999462e-01
7.994139999999999580e-01
8.034430000000000183e-01
8.106959999999999722e-01
8.155310000000000059e-01
8.219779999999999864e-01
8.260070000000000467e-01
8.260070000000000467e-01
8.300370000000000248e-01
8.316480000000000539e-01
8.340659999999999741e-01
8.332600000000000007e-01
8.485709999999999642e-01
8.380950000000000344e-01
8.364840000000000053e-01
8.372889999999999500e-01
8.380950000000000344e-01
8.429299999999999571e-01
8.405129999999999546e-01
8.405129999999999546e-01
8.397069999999999812e-01
8.461539999999999617e-01
8.445420000000000149e-01
8.437360000000000415e-01
8.453479999999999883e-01
8.437360000000000415e-01
8.461539999999999617e-01
8.453479999999999883e-01
8.469600000000000461e-01
8.485709999999999642e-01
8.437360000000000415e-01
8.445420000000000149e-01
8.517949999999999688e-01
8.469600000000000461e-01
8.485709999999999642e-01
8.437360000000000415e-01
8.453479999999999883e-01
8.485709999999999642e-01
8.509889999999999954e-01
8.509889999999999954e-01
8.461539999999999617e-01
8.453479999999999883e-01
8.509889999999999954e-01
8.485709999999999642e-01
8.517949999999999688e-01
8.534070000000000267e-01
8.526010000000000533e-01
8.558240000000000292e-01
8.517949999999999688e-01
8.542119999999999713e-01
8.558240000000000292e-01
8.501830000000000220e-01
8.501830000000000220e-01
8.638829999999999565e-01
8.534070000000000267e-01
8.526010000000000533e-01
8.574359999999999760e-01
8.566300000000000026e-01
8.606589999999999518e-01
8.614650000000000363e-01
8.638829999999999565e-01
8.638829999999999565e-01
8.606589999999999518e-01
8.638829999999999565e-01
8.630769999999999831e-01
8.662999999999999590e-01
8.695239999999999636e-01
8.695239999999999636e-01
8.735530000000000239e-01
8.711360000000000214e-01
8.743589999999999973e-01
8.751649999999999707e-01
8.743589999999999973e-01
8.735530000000000239e-01
8.808059999999999778e-01
8.783879999999999466e-01
8.816119999999999512e-01
8.856410000000000116e-01
8.840289999999999537e-01
8.872529999999999584e-01
8.848350000000000382e-01
8.848350000000000382e-01
8.840289999999999537e-01
8.864469999999999850e-01
8.864469999999999850e-01
8.872529999999999584e-01
8.872529999999999584e-01
8.872529999999999584e-01
8.872529999999999584e-01
8.880590000000000428e-01
8.880590000000000428e-01
8.840289999999999537e-01
8.864469999999999850e-01
8.848350000000000382e-01
8.872529999999999584e-01
8.856410000000000116e-01
8.832229999999999803e-01
8.800000000000000044e-01
8.800000000000000044e-01
8.743589999999999973e-01
8.743589999999999973e-01
8.751649999999999707e-01
8.646890000000000409e-01
8.703300000000000480e-01
8.614650000000000363e-01
8.598529999999999784e-01
8.582419999999999494e-01
8.566300000000000026e-01
8.526010000000000533e-01
8.534070000000000267e-01
8.485709999999999642e-01
8.445420000000000149e-01
8.413190000000000390e-01
8.389010000000000078e-01
8.437360000000000415e-01
8.372889999999999500e-01
8.380950000000000344e-01
8.364840000000000053e-01
8.356780000000000319e-01
8.380950000000000344e-01
8.380950000000000344e-01
8.364840000000000053e-01
8.332600000000000007e-01
8.348719999999999475e-01
8.380950000000000344e-01
8.348719999999999475e-01
8.356780000000000319e-01
8.340659999999999741e-01
8.324540000000000273e-01
8.348719999999999475e-01
8.324540000000000273e-01
8.332600000000000007e-01
8.316480000000000539e-01
8.316480000000000539e-01
8.308419999999999694e-01
8.308419999999999694e-01
8.300370000000000248e-01
8.284249999999999670e-01
8.308419999999999694e-01
8.340659999999999741e-01
8.316480000000000539e-01
8.348719999999999475e-01
8.324540000000000273e-01
8.211720000000000130e-01
8.316480000000000539e-01
8.292310000000000514e-01
8.324540000000000273e-01
8.332600000000000007e-01
8.292310000000000514e-01
8.380950000000000344e-01
8.276189999999999936e-01
8.340659999999999741e-01
8.340659999999999741e-01
8.308419999999999694e-01
8.308419999999999694e-01
8.300370000000000248e-01
8.308419999999999694e-01
8.292310000000000514e-01
8.332600000000000007e-01
8.276189999999999936e-01
8.316480000000000539e-01
8.300370000000000248e-01
8.292310000000000514e-01
8.324540000000000273e-01
8.284249999999999670e-01
8.332600000000000007e-01
8.316480000000000539e-01
8.340659999999999741e-01
8.316480000000000539e-01
8.300370000000000248e-01
8.292310000000000514e-01
8.300370000000000248e-01
8.308419999999999694e-01
8.300370000000000248e-01
8.348719999999999475e-01
8.405129999999999546e-01
8.356780000000000319e-01
8.348719999999999475e-01
8.340659999999999741e-01
8.364840000000000053e-01
8.324540000000000273e-01
8.356780000000000319e-01
8.340659999999999741e-01
8.316480000000000539e-01
8.308419999999999694e-01
8.348719999999999475e-01
8.316480000000000539e-01
8.380950000000000344e-01
8.324540000000000273e-01
8.332600000000000007e-01
8.308419999999999694e-01
8.332600000000000007e-01
8.316480000000000539e-01
8.292310000000000514e-01
8.340659999999999741e-01
8.340659999999999741e-01
8.308419999999999694e-01
8.316480000000000539e-01
8.058610000000000495e-01
8.340659999999999741e-01
8.340659999999999741e-01
8.308419999999999694e-01
8.340659999999999741e-01
8.340659999999999741e-01
8.324540000000000273e-01
8.348719999999999475e-01
8.324540000000000273e-01
8.348719999999999475e-01
8.308419999999999694e-01
8.316480000000000539e-01
8.308419999999999694e-01
8.348719999999999475e-01
8.364840000000000053e-01
8.276189999999999936e-01
8.324540000000000273e-01
8.308419999999999694e-01
8.292310000000000514e-01
8.292310000000000514e-01
8.372889999999999500e-01
8.292310000000000514e-01
8.316480000000000539e-01
8.332600000000000007e-01
8.316480000000000539e-01
8.340659999999999741e-01
8.324540000000000273e-01
8.340659999999999741e-01
8.308419999999999694e-01
8.308419999999999694e-01
8.324540000000000273e-01
8.308419999999999694e-01
8.308419999999999694e-01
8.316480000000000539e-01
8.276189999999999936e-01
8.308419999999999694e-01
8.316480000000000539e-01
8.332600000000000007e-01
8.340659999999999741e-01
8.276189999999999936e-01
8.356780000000000319e-01
8.340659999999999741e-01
8.340659999999999741e-01
8.340659999999999741e-01
8.340659999999999741e-01
8.405129999999999546e-01
8.340659999999999741e-01
8.340659999999999741e-01
8.324540000000000273e-01
8.332600000000000007e-01
8.308419999999999694e-01
8.276189999999999936e-01
8.308419999999999694e-01
8.364840000000000053e-01
8.340659999999999741e-01
8.316480000000000539e-01
8.324540000000000273e-01
8.276189999999999936e-01
8.348719999999999475e-01
8.316480000000000539e-01
8.316480000000000539e-01
8.308419999999999694e-01
8.340659999999999741e-01
8.364840000000000053e-01
8.380950000000000344e-01
8.364840000000000053e-01
8.372889999999999500e-01
8.356780000000000319e-01
8.405129999999999546e-01
8.405129999999999546e-01
8.397069999999999812e-01
8.340659999999999741e-01
8.372889999999999500e-01
8.372889999999999500e-01
8.356780000000000319e-01
8.372889999999999500e-01
8.340659999999999741e-01
8.332600000000000007e-01
8.340659999999999741e-01
8.397069999999999812e-01
8.348719999999999475e-01
8.348719999999999475e-01
8.340659999999999741e-01
8.364840000000000053e-01
8.389010000000000078e-01
8.413190000000000390e-01
8.340659999999999741e-01
8.364840000000000053e-01
8.340659999999999741e-01
8.364840000000000053e-01
8.340659999999999741e-01
8.284249999999999670e-01
8.324540000000000273e-01
8.292310000000000514e-01
8.292310000000000514e-01
8.340659999999999741e-01
8.284249999999999670e-01
8.308419999999999694e-01
8.340659999999999741e-01
8.340659999999999741e-01
8.316480000000000539e-01
8.316480000000000539e-01
8.308419999999999694e-01
8.308419999999999694e-01
8.332600000000000007e-01
8.292310000000000514e-01
8.316480000000000539e-01
8.332600000000000007e-01
8.324540000000000273e-01
8.308419999999999694e-01
8.284249999999999670e-01
8.332600000000000007e-01
8.308419999999999694e-01
8.316480000000000539e-01
8.292310000000000514e-01
8.308419999999999694e-01
8.340659999999999741e-01
8.380950000000000344e-01
8.413190000000000390e-01
8.493770000000000486e-01
8.574359999999999760e-01
8.558240000000000292e-01
8.638829999999999565e-01
8.695239999999999636e-01
8.791940000000000310e-01
8.800000000000000044e-01
8.856410000000000116e-01
8.848350000000000382e-01
8.832229999999999803e-01
8.759710000000000552e-01
8.719409999999999661e-01
8.662999999999999590e-01
8.477660000000000196e-01
8.163369999999999793e-01
7.897440000000000015e-01
7.671790000000000553e-01
7.567030000000000145e-01
7.607329999999999925e-01
7.607329999999999925e-01
7.518679999999999808e-01
7.486450000000000049e-01
7.454210000000000003e-01
7.494509999999999783e-01
7.502560000000000340e-01
7.615380000000000482e-01
7.695969999999999756e-01
7.776560000000000139e-01
7.784619999999999873e-01
7.832970000000000210e-01
7.921610000000000040e-01
8.050549999999999651e-01
8.106959999999999722e-01
8.147250000000000325e-01
8.235900000000000443e-01
8.284249999999999670e-01
8.268130000000000202e-01
8.316480000000000539e-01
8.332600000000000007e-01
8.308419999999999694e-01
8.332600000000000007e-01
8.340659999999999741e-01
8.348719999999999475e-01
8.340659999999999741e-01
8.364840000000000053e-01
8.380950000000000344e-01
8.364840000000000053e-01
8.397069999999999812e-01
8.372889999999999500e-01
8.413190000000000390e-01
8.372889999999999500e-01
8.405129999999999546e-01
8.429299999999999571e-01
8.372889999999999500e-01
8.413190000000000390e-01
8.453479999999999883e-01
8.413190000000000390e-01
8.413190000000000390e-01
8.437360000000000415e-01
8.437360000000000415e-01
8.445420000000000149e-01
8.477660000000000196e-01
8.493770000000000486e-01
8.501830000000000220e-01
8.453479999999999883e-01
8.445420000000000149e-01
8.461539999999999617e-01
8.461539999999999617e-01
8.405129999999999546e-01
8.477660000000000196e-01
8.485709999999999642e-01
8.566300000000000026e-01
8.437360000000000415e-01
8.493770000000000486e-01
8.477660000000000196e-01
8.509889999999999954e-01
8.493770000000000486e-01
8.542119999999999713e-01
8.501830000000000220e-01
8.501830000000000220e-01
8.517949999999999688e-01
8.517949999999999688e-01
8.501830000000000220e-01
8.542119999999999713e-01
8.550179999999999447e-01
8.558240000000000292e-01
8.534070000000000267e-01
8.574359999999999760e-01
8.566300000000000026e-01
8.582419999999999494e-01
8.606589999999999518e-01
8.566300000000000026e-01
8.630769999999999831e-01
8.630769999999999831e-01
8.630769999999999831e-01
8.654950000000000143e-01
8.671060000000000434e-01
8.687179999999999902e-01
8.703300000000000480e-01
8.743589999999999973e-01
8.719409999999999661e-01
8.727470000000000505e-01
8.477660000000000196e-01
8.751649999999999707e-01
8.759710000000000552e-01
8.791940000000000310e-01
8.832229999999999803e-01
8.824180000000000357e-01
8.824180000000000357e-01
8.824180000000000357e-01
8.840289999999999537e-01
8.824180000000000357e-01
8.824180000000000357e-01
8.832229999999999803e-01
8.896699999999999608e-01
8.824180000000000357e-01
8.880590000000000428e-01
8.856410000000000116e-01
8.824180000000000357e-01
8.848350000000000382e-01
8.880590000000000428e-01
8.840289999999999537e-01
8.856410000000000116e-01
8.824180000000000357e-01
8.800000000000000044e-01
8.920879999999999921e-01
8.791940000000000310e-01
8.759710000000000552e-01
8.711360000000000214e-01
8.719409999999999661e-01
8.671060000000000434e-01
8.671060000000000434e-01
8.646890000000000409e-01
8.638829999999999565e-01
8.566300000000000026e-01
8.550179999999999447e-01
8.534070000000000267e-01
8.501830000000000220e-01
8.509889999999999954e-01
8.421250000000000124e-01
8.437360000000000415e-01
8.421250000000000124e-01
8.437360000000000415e-01
8.421250000000000124e-01
8.413190000000000390e-01
8.380950000000000344e-01
8.380950000000000344e-01
8.340659999999999741e-01
8.348719999999999475e-01
8.389010000000000078e-01
8.324540000000000273e-01
8.364840000000000053e-01
8.340659999999999741e-01
8.324540000000000273e-01
8.356780000000000319e-01
8.348719999999999475e-01
8.308419999999999694e-01
8.300370000000000248e-01
8.324540000000000273e-01
8.324540000000000273e-01
8.324540000000000273e-01
8.348719999999999475e-01
8.300370000000000248e-01
8.324540000000000273e-01
8.308419999999999694e-01
8.276189999999999936e-01
8.332600000000000007e-01
8.332600000000000007e-01
8.316480000000000539e-01
8.340659999999999741e-01
8.316480000000000539e-01
8.316480000000000539e-01
8.316480000000000539e-01
8.324540000000000273e-01
8.308419999999999694e-01
8.284249999999999670e-01
8.332600000000000007e-01
8.292310000000000514e-01
8.316480000000000539e-01
8.284249999999999670e-01
8.308419999999999694e-01
8.332600000000000007e-01
8.292310000000000514e-01
8.308419999999999694e-01
8.324540000000000273e-01
8.324540000000000273e-01
8.308419999999999694e-01
8.308419999999999694e-01
8.300370000000000248e-01
8.324540000000000273e-01
8.292310000000000514e-01
8.292310000000000514e-01
8.292310000000000514e-01
8.308419999999999694e-01
8.300370000000000248e-01
8.308419999999999694e-01
8.300370000000000248e-01
8.300370000000000248e-01
8.316480000000000539e-01
8.316480000000000539e-01
8.308419999999999694e-01
8.308419999999999694e-01
8.316480000000000539e-01
8.276189999999999936e-01
8.300370000000000248e-01
8.308419999999999694e-01
8.340659999999999741e-01
8.300370000000000248e-01
8.308419999999999694e-01
8.300370000000000248e-01
8.316480000000000539e-01
8.340659999999999741e-01
8.300370000000000248e-01
8.324540000000000273e-01
8.308419999999999694e-01
8.316480000000000539e-01
8.276189999999999936e-01
8.308419999999999694e-01
8.324540000000000273e-01
8.308419999999999694e-01
8.316480000000000539e-01
8.308419999999999694e-01
8.445420000000000149e-01
8.316480000000000539e-01
8.340659999999999741e-01
