8.477660000000000196e-01
8.791940000000000310e-01
8.864469999999999850e-01
8.880590000000000428e-01
8.904760000000000453e-01
8.937000000000000499e-01
8.888639999999999874e-01
8.904760000000000453e-01
8.953109999999999680e-01
8.888639999999999874e-01
8.937000000000000499e-01
8.864469999999999850e-01
8.880590000000000428e-01
8.872529999999999584e-01
8.920879999999999921e-01
8.848350000000000382e-01
8.864469999999999850e-01
8.808059999999999778e-01
8.824180000000000357e-01
8.800000000000000044e-01
8.848350000000000382e-01
8.832229999999999803e-01
8.824180000000000357e-01
8.824180000000000357e-01
8.824180000000000357e-01
8.800000000000000044e-01
8.808059999999999778e-01
8.808059999999999778e-01
8.791940000000000310e-01
8.808059999999999778e-01
8.759710000000000552e-01
8.719409999999999661e-01
8.751649999999999707e-01
8.727470000000000505e-01
8.743589999999999973e-01
8.743589999999999973e-01
8.743589999999999973e-01
8.743589999999999973e-01
8.727470000000000505e-01
8.735530000000000239e-01
8.679120000000000168e-01
8.711360000000000214e-01
8.687179999999999902e-01
8.711360000000000214e-01
8.703300000000000480e-01
8.695239999999999636e-01
8.679120000000000168e-01
8.687179999999999902e-01
8.687179999999999902e-01
8.671060000000000434e-01
8.679120000000000168e-01
8.703300000000000480e-01
8.679120000000000168e-01
8.711360000000000214e-01
8.622710000000000097e-01
8.662999999999999590e-01
8.695239999999999636e-01
8.703300000000000480e-01
8.695239999999999636e-01
8.711360000000000214e-01
8.703300000000000480e-01
8.662999999999999590e-01
8.703300000000000480e-01
8.703300000000000480e-01
8.743589999999999973e-01
8.767770000000000286e-01
8.727470000000000505e-01
8.719409999999999661e-01
8.719409999999999661e-01
8.727470000000000505e-01
8.727470000000000505e-01
8.711360000000000214e-01
8.727470000000000505e-01
8.711360000000000214e-01
8.654950000000000143e-01
8.695239999999999636e-01
8.695239999999999636e-01
8.703300000000000480e-01
8.743589999999999973e-01
8.791940000000000310e-01
8.703300000000000480e-01
8.703300000000000480e-01
8.727470000000000505e-01
8.791940000000000310e-01
8.783879999999999466e-01
8.727470000000000505e-01
8.727470000000000505e-01
8.751649999999999707e-01
8.735530000000000239e-01
8.743589999999999973e-01
8.735530000000000239e-01
8.751649999999999707e-01
8.735530000000000239e-01
8.743589999999999973e-01
8.743589999999999973e-01
8.735530000000000239e-01
8.727470000000000505e-01
8.727470000000000505e-01
8.735530000000000239e-01
8.719409999999999661e-01
8.767770000000000286e-01
8.687179999999999902e-01
8.767770000000000286e-01
8.727470000000000505e-01
8.727470000000000505e-01
8.735530000000000239e-01
8.735530000000000239e-01
8.743589999999999973e-01
8.711360000000000214e-01
8.783879999999999466e-01
8.759710000000000552e-01
8.767770000000000286e-01
8.719409999999999661e-01
8.695239999999999636e-01
8.614650000000000363e-01
8.703300000000000480e-01
8.695239999999999636e-01
8.735530000000000239e-01
8.743589999999999973e-01
8.759710000000000552e-01
8.735530000000000239e-01
8.719409999999999661e-01
8.711360000000000214e-01
8.574359999999999760e-01
8.711360000000000214e-01
8.719409999999999661e-01
8.711360000000000214e-01
8.727470000000000505e-01
8.711360000000000214e-01
8.727470000000000505e-01
8.751649999999999707e-01
8.719409999999999661e-01
8.751649999999999707e-01
8.759710000000000552e-01
8.751649999999999707e-01
8.727470000000000505e-01
8.711360000000000214e-01
8.727470000000000505e-01
8.808059999999999778e-01
8.743589999999999973e-01
8.775819999999999732e-01
8.719409999999999661e-01
8.735530000000000239e-01
8.735530000000000239e-01
8.791940000000000310e-01
8.743589999999999973e-01
8.767770000000000286e-01
8.791940000000000310e-01
8.856410000000000116e-01
8.751649999999999707e-01
8.775819999999999732e-01
8.808059999999999778e-01
8.808059999999999778e-01
8.791940000000000310e-01
8.743589999999999973e-01
8.791940000000000310e-01
8.751649999999999707e-01
8.767770000000000286e-01
8.735530000000000239e-01
8.727470000000000505e-01
8.751649999999999707e-01
8.767770000000000286e-01
8.671060000000000434e-01
8.711360000000000214e-01
8.695239999999999636e-01
8.719409999999999661e-01
8.703300000000000480e-01
8.727470000000000505e-01
8.711360000000000214e-01
8.703300000000000480e-01
8.727470000000000505e-01
8.703300000000000480e-01
8.759710000000000552e-01
8.695239999999999636e-01
8.719409999999999661e-01
8.767770000000000286e-01
8.743589999999999973e-01
8.711360000000000214e-01
8.719409999999999661e-01
8.671060000000000434e-01
8.695239999999999636e-01
8.687179999999999902e-01
8.695239999999999636e-01
8.687179999999999902e-01
8.727470000000000505e-01
8.695239999999999636e-01
8.735530000000000239e-01
8.687179999999999902e-01
8.654950000000000143e-01
8.679120000000000168e-01
8.687179999999999902e-01
8.695239999999999636e-01
8.711360000000000214e-01
8.743589999999999973e-01
8.695239999999999636e-01
8.703300000000000480e-01
8.695239999999999636e-01
8.671060000000000434e-01
8.679120000000000168e-01
8.671060000000000434e-01
8.783879999999999466e-01
8.751649999999999707e-01
8.751649999999999707e-01
8.832229999999999803e-01
8.872529999999999584e-01
8.961170000000000524e-01
8.985349999999999726e-01
9.041759999999999797e-01
9.098169999999999868e-01
9.154579999999999940e-01
9.259340000000000348e-01
9.388279999999999959e-01
9.468860000000000054e-01
9.420509999999999717e-01
9.339929999999999621e-01
9.090110000000000134e-01
8.719409999999999661e-01
8.534070000000000267e-01
8.445420000000000149e-01
8.413190000000000390e-01
8.356780000000000319e-01
8.380950000000000344e-01
8.340659999999999741e-01
8.308419999999999694e-01
8.308419999999999694e-01
8.252009999999999623e-01
8.372889999999999500e-01
8.437360000000000415e-01
8.485709999999999642e-01
8.517949999999999688e-01
8.485709999999999642e-01
8.590480000000000338e-01
8.646890000000000409e-01
8.695239999999999636e-01
8.646890000000000409e-01
8.735530000000000239e-01
8.703300000000000480e-01
8.679120000000000168e-01
8.735530000000000239e-01
8.719409999999999661e-01
8.679120000000000168e-01
8.767770000000000286e-01
8.679120000000000168e-01
8.727470000000000505e-01
8.727470000000000505e-01
8.703300000000000480e-01
8.727470000000000505e-01
8.743589999999999973e-01
8.751649999999999707e-01
8.695239999999999636e-01
8.703300000000000480e-01
8.719409999999999661e-01
8.719409999999999661e-01
8.751649999999999707e-01
8.775819999999999732e-01
8.735530000000000239e-01
8.735530000000000239e-01
8.767770000000000286e-01
8.727470000000000505e-01
8.751649999999999707e-01
8.775819999999999732e-01
8.775819999999999732e-01
8.824180000000000357e-01
8.751649999999999707e-01
8.775819999999999732e-01
8.800000000000000044e-01
8.751649999999999707e-01
8.800000000000000044e-01
8.791940000000000310e-01
8.808059999999999778e-01
8.800000000000000044e-01
8.783879999999999466e-01
8.800000000000000044e-01
8.727470000000000505e-01
8.791940000000000310e-01
8.840289999999999537e-01
8.800000000000000044e-01
8.832229999999999803e-01
8.832229999999999803e-01
8.840289999999999537e-01
8.848350000000000382e-01
8.840289999999999537e-01
8.816119999999999512e-01
8.848350000000000382e-01
8.945049999999999946e-01
8.848350000000000382e-01
8.872529999999999584e-01
8.920879999999999921e-01
8.864469999999999850e-01
8.912820000000000187e-01
8.920879999999999921e-01
8.864469999999999850e-01
8.888639999999999874e-01
8.912820000000000187e-01
8.912820000000000187e-01
8.937000000000000499e-01
8.920879999999999921e-01
9.025640000000000329e-01
8.928939999999999655e-01
8.945049999999999946e-01
8.961170000000000524e-01
9.017579999999999485e-01
8.961170000000000524e-01
8.961170000000000524e-01
8.912820000000000187e-01
8.912820000000000187e-01
8.977289999999999992e-01
8.920879999999999921e-01
8.945049999999999946e-01
8.928939999999999655e-01
8.824180000000000357e-01
8.832229999999999803e-01
8.888639999999999874e-01
8.896699999999999608e-01
8.896699999999999608e-01
8.888639999999999874e-01
8.872529999999999584e-01
8.880590000000000428e-01
8.848350000000000382e-01
8.783879999999999466e-01
8.840289999999999537e-01
8.824180000000000357e-01
8.856410000000000116e-01
8.912820000000000187e-01
8.856410000000000116e-01
8.816119999999999512e-01
8.808059999999999778e-01
8.783879999999999466e-01
8.759710000000000552e-01
8.759710000000000552e-01
8.783879999999999466e-01
8.783879999999999466e-01
8.888639999999999874e-01
8.800000000000000044e-01
8.767770000000000286e-01
8.743589999999999973e-01
8.703300000000000480e-01
8.759710000000000552e-01
8.735530000000000239e-01
8.743589999999999973e-01
8.800000000000000044e-01
8.800000000000000044e-01
8.711360000000000214e-01
8.751649999999999707e-01
8.719409999999999661e-01
8.735530000000000239e-01
8.743589999999999973e-01
8.735530000000000239e-01
8.735530000000000239e-01
8.767770000000000286e-01
8.808059999999999778e-01
8.735530000000000239e-01
8.703300000000000480e-01
8.711360000000000214e-01
8.775819999999999732e-01
8.735530000000000239e-01
8.735530000000000239e-01
8.751649999999999707e-01
8.767770000000000286e-01
8.743589999999999973e-01
8.743589999999999973e-01
8.719409999999999661e-01
8.759710000000000552e-01
8.759710000000000552e-01
8.735530000000000239e-01
8.783879999999999466e-01
8.824180000000000357e-01
8.775819999999999732e-01
8.783879999999999466e-01
8.751649999999999707e-01
8.775819999999999732e-01
8.630769999999999831e-01
8.743589999999999973e-01
8.751649999999999707e-01
8.759710000000000552e-01
8.800000000000000044e-01
8.735530000000000239e-01
8.719409999999999661e-01
8.767770000000000286e-01
8.808059999999999778e-01
8.808059999999999778e-01
8.791940000000000310e-01
8.783879999999999466e-01
8.775819999999999732e-01
8.791940000000000310e-01
8.711360000000000214e-01
8.775819999999999732e-01
8.767770000000000286e-01
8.791940000000000310e-01
8.679120000000000168e-01
8.775819999999999732e-01
8.767770000000000286e-01
8.654950000000000143e-01
8.800000000000000044e-01
8.783879999999999466e-01
8.743589999999999973e-01
8.759710000000000552e-01
8.759710000000000552e-01
8.775819999999999732e-01
8.800000000000000044e-01
8.775819999999999732e-01
8.791940000000000310e-01
8.791940000000000310e-01
8.775819999999999732e-01
8.791940000000000310e-01
8.695239999999999636e-01
8.953109999999999680e-01
8.791940000000000310e-01
8.775819999999999732e-01
8.816119999999999512e-01
8.824180000000000357e-01
8.775819999999999732e-01
8.775819999999999732e-01
8.808059999999999778e-01
8.767770000000000286e-01
8.759710000000000552e-01
8.735530000000000239e-01
8.783879999999999466e-01
8.751649999999999707e-01
8.703300000000000480e-01
8.727470000000000505e-01
8.751649999999999707e-01
8.775819999999999732e-01
8.783879999999999466e-01
8.783879999999999466e-01
8.775819999999999732e-01
8.775819999999999732e-01
8.800000000000000044e-01
8.759710000000000552e-01
8.783879999999999466e-01
8.735530000000000239e-01
8.783879999999999466e-01
8.743589999999999973e-01
8.767770000000000286e-01
8.775819999999999732e-01
8.800000000000000044e-01
8.791940000000000310e-01
8.727470000000000505e-01
8.775819999999999732e-01
8.808059999999999778e-01
8.848350000000000382e-01
8.719409999999999661e-01
8.832229999999999803e-01
8.767770000000000286e-01
8.848350000000000382e-01
8.783879999999999466e-01
8.856410000000000116e-01
8.791940000000000310e-01
8.824180000000000357e-01
8.824180000000000357e-01
8.808059999999999778e-01
8.783879999999999466e-01
8.816119999999999512e-01
8.824180000000000357e-01
8.711360000000000214e-01
8.759710000000000552e-01
8.775819999999999732e-01
8.791940000000000310e-01
8.727470000000000505e-01
8.743589999999999973e-01
8.743589999999999973e-01
8.743589999999999973e-01
8.735530000000000239e-01
8.727470000000000505e-01
8.727470000000000505e-01
8.743589999999999973e-01
8.735530000000000239e-01
8.662999999999999590e-01
8.727470000000000505e-01
8.767770000000000286e-01
8.751649999999999707e-01
8.751649999999999707e-01
8.695239999999999636e-01
8.735530000000000239e-01
8.719409999999999661e-01
8.767770000000000286e-01
8.727470000000000505e-01
8.743589999999999973e-01
8.735530000000000239e-01
8.671060000000000434e-01
8.743589999999999973e-01
8.751649999999999707e-01
8.783879999999999466e-01
8.743589999999999973e-01
8.719409999999999661e-01
8.727470000000000505e-01
8.743589999999999973e-01
8.727470000000000505e-01
8.743589999999999973e-01
8.816119999999999512e-01
8.767770000000000286e-01
8.759710000000000552e-01
8.759710000000000552e-01
8.614650000000000363e-01
8.727470000000000505e-01
8.743589999999999973e-01
8.735530000000000239e-01
8.783879999999999466e-01
8.808059999999999778e-01
8.880590000000000428e-01
8.945049999999999946e-01
8.993409999999999460e-01
9.090110000000000134e-01
9.114290000000000447e-01
9.146520000000000206e-01
9.243219999999999770e-01
9.291580000000000394e-01
9.420509999999999717e-01
9.541389999999999594e-01
9.525270000000000126e-01
9.347990000000000466e-01
9.025640000000000329e-01
8.638829999999999565e-01
8.558240000000000292e-01
8.493770000000000486e-01
8.389010000000000078e-01
8.421250000000000124e-01
8.437360000000000415e-01
8.429299999999999571e-01
8.252009999999999623e-01
8.252009999999999623e-01
8.316480000000000539e-01
8.421250000000000124e-01
8.453479999999999883e-01
8.453479999999999883e-01
8.526010000000000533e-01
8.534070000000000267e-01
8.646890000000000409e-01
8.711360000000000214e-01
8.687179999999999902e-01
8.711360000000000214e-01
8.727470000000000505e-01
8.759710000000000552e-01
8.727470000000000505e-01
8.751649999999999707e-01
8.759710000000000552e-01
8.687179999999999902e-01
8.662999999999999590e-01
8.751649999999999707e-01
8.727470000000000505e-01
8.735530000000000239e-01
8.735530000000000239e-01
8.767770000000000286e-01
8.751649999999999707e-01
8.767770000000000286e-01
8.759710000000000552e-01
8.679120000000000168e-01
8.775819999999999732e-01
8.791940000000000310e-01
8.808059999999999778e-01
8.775819999999999732e-01
8.775819999999999732e-01
8.743589999999999973e-01
8.791940000000000310e-01
8.719409999999999661e-01
8.800000000000000044e-01
8.783879999999999466e-01
8.791940000000000310e-01
8.816119999999999512e-01
8.783879999999999466e-01
8.816119999999999512e-01
8.840289999999999537e-01
8.848350000000000382e-01
8.945049999999999946e-01
8.872529999999999584e-01
8.824180000000000357e-01
8.888639999999999874e-01
8.832229999999999803e-01
8.856410000000000116e-01
8.840289999999999537e-01
8.840289999999999537e-01
8.840289999999999537e-01
8.840289999999999537e-01
8.808059999999999778e-01
8.872529999999999584e-01
8.856410000000000116e-01
8.808059999999999778e-01
8.872529999999999584e-01
8.888639999999999874e-01
8.904760000000000453e-01
8.945049999999999946e-01
8.856410000000000116e-01
8.904760000000000453e-01
8.937000000000000499e-01
8.945049999999999946e-01
8.953109999999999680e-01
8.961170000000000524e-01
8.945049999999999946e-01
8.985349999999999726e-01
8.953109999999999680e-01
8.977289999999999992e-01
8.985349999999999726e-01
8.993409999999999460e-01
9.033700000000000063e-01
9.009519999999999751e-01
8.912820000000000187e-01
9.009519999999999751e-01
8.977289999999999992e-01
8.985349999999999726e-01
8.993409999999999460e-01
9.025640000000000329e-01
8.912820000000000187e-01
9.057880000000000376e-01
8.961170000000000524e-01
8.945049999999999946e-01
8.872529999999999584e-01
8.953109999999999680e-01
8.961170000000000524e-01
8.985349999999999726e-01
8.937000000000000499e-01
8.937000000000000499e-01
8.880590000000000428e-01
8.888639999999999874e-01
8.912820000000000187e-01
8.904760000000000453e-01
8.824180000000000357e-01
8.896699999999999608e-01
8.848350000000000382e-01
8.888639999999999874e-01
8.928939999999999655e-01
8.856410000000000116e-01
8.848350000000000382e-01
8.848350000000000382e-01
8.840289999999999537e-01
8.791940000000000310e-01
8.824180000000000357e-01
8.832229999999999803e-01
8.808059999999999778e-01
8.945049999999999946e-01
8.840289999999999537e-01
8.791940000000000310e-01
8.800000000000000044e-01
8.816119999999999512e-01
8.856410000000000116e-01
8.759710000000000552e-01
8.808059999999999778e-01
8.896699999999999608e-01
8.743589999999999973e-01
8.759710000000000552e-01
8.751649999999999707e-01
8.928939999999999655e-01
8.783879999999999466e-01
8.800000000000000044e-01
8.816119999999999512e-01
8.783879999999999466e-01
8.783879999999999466e-01
8.832229999999999803e-01
8.775819999999999732e-01
8.743589999999999973e-01
8.808059999999999778e-01
8.775819999999999732e-01
8.824180000000000357e-01
8.759710000000000552e-01
8.888639999999999874e-01
8.816119999999999512e-01
8.751649999999999707e-01
8.808059999999999778e-01
8.775819999999999732e-01
8.703300000000000480e-01
8.775819999999999732e-01
8.783879999999999466e-01
8.800000000000000044e-01
8.816119999999999512e-01
8.703300000000000480e-01
8.808059999999999778e-01
8.808059999999999778e-01
8.888639999999999874e-01
8.840289999999999537e-01
8.662999999999999590e-01
8.791940000000000310e-01
8.832229999999999803e-01
8.751649999999999707e-01
8.864469999999999850e-01
8.824180000000000357e-01
8.816119999999999512e-01
8.840289999999999537e-01
8.775819999999999732e-01
8.832229999999999803e-01
8.816119999999999512e-01
8.808059999999999778e-01
8.856410000000000116e-01
8.840289999999999537e-01
8.824180000000000357e-01
8.856410000000000116e-01
8.824180000000000357e-01
8.864469999999999850e-01
8.808059999999999778e-01
8.800000000000000044e-01
8.872529999999999584e-01
8.904760000000000453e-01
8.880590000000000428e-01
8.824180000000000357e-01
8.848350000000000382e-01
8.783879999999999466e-01
8.832229999999999803e-01
8.864469999999999850e-01
8.816119999999999512e-01
8.848350000000000382e-01
8.824180000000000357e-01
8.832229999999999803e-01
8.840289999999999537e-01
8.759710000000000552e-01
8.735530000000000239e-01
8.808059999999999778e-01
8.824180000000000357e-01
8.808059999999999778e-01
8.864469999999999850e-01
8.856410000000000116e-01
8.824180000000000357e-01
8.808059999999999778e-01
8.953109999999999680e-01
8.800000000000000044e-01
8.800000000000000044e-01
8.880590000000000428e-01
8.824180000000000357e-01
8.872529999999999584e-01
8.800000000000000044e-01
8.808059999999999778e-01
8.791940000000000310e-01
8.800000000000000044e-01
8.945049999999999946e-01
8.840289999999999537e-01
8.824180000000000357e-01
8.888639999999999874e-01
8.912820000000000187e-01
8.872529999999999584e-01
8.856410000000000116e-01
8.816119999999999512e-01
8.840289999999999537e-01
8.864469999999999850e-01
8.880590000000000428e-01
8.840289999999999537e-01
8.856410000000000116e-01
8.864469999999999850e-01
8.856410000000000116e-01
8.872529999999999584e-01
8.880590000000000428e-01
9.009519999999999751e-01
8.856410000000000116e-01
8.880590000000000428e-01
8.896699999999999608e-01
8.864469999999999850e-01
8.856410000000000116e-01
8.848350000000000382e-01
8.832229999999999803e-01
8.888639999999999874e-01
8.920879999999999921e-01
8.872529999999999584e-01
8.832229999999999803e-01
8.848350000000000382e-01
8.767770000000000286e-01
8.808059999999999778e-01
8.848350000000000382e-01
8.864469999999999850e-01
8.848350000000000382e-01
8.832229999999999803e-01
8.800000000000000044e-01
8.759710000000000552e-01
8.735530000000000239e-01
8.791940000000000310e-01
8.800000000000000044e-01
8.808059999999999778e-01
8.848350000000000382e-01
8.816119999999999512e-01
8.816119999999999512e-01
8.800000000000000044e-01
8.816119999999999512e-01
8.840289999999999537e-01
8.840289999999999537e-01
8.832229999999999803e-01
8.808059999999999778e-01
8.848350000000000382e-01
8.743589999999999973e-01
8.816119999999999512e-01
8.816119999999999512e-01
8.880590000000000428e-01
8.783879999999999466e-01
8.856410000000000116e-01
8.824180000000000357e-01
8.800000000000000044e-01
8.824180000000000357e-01
8.864469999999999850e-01
8.808059999999999778e-01
8.767770000000000286e-01
8.872529999999999584e-01
8.864469999999999850e-01
8.856410000000000116e-01
8.816119999999999512e-01
8.896699999999999608e-01
8.872529999999999584e-01
8.832229999999999803e-01
8.816119999999999512e-01
8.848350000000000382e-01
8.961170000000000524e-01
8.961170000000000524e-01
9.001470000000000304e-01
9.082050000000000400e-01
9.114290000000000447e-01
9.194870000000000543e-01
9.251279999999999504e-01
9.251279999999999504e-01
9.315750000000000419e-01
9.452749999999999764e-01
9.517219999999999569e-01
9.533329999999999860e-01
9.396339999999999693e-01
9.017579999999999485e-01
8.719409999999999661e-01
8.703300000000000480e-01
8.654950000000000143e-01
8.622710000000000097e-01
8.542119999999999713e-01
8.566300000000000026e-01
8.517949999999999688e-01
8.453479999999999883e-01
8.413190000000000390e-01
8.389010000000000078e-01
8.558240000000000292e-01
8.606589999999999518e-01
8.630769999999999831e-01
8.727470000000000505e-01
8.606589999999999518e-01
8.662999999999999590e-01
8.800000000000000044e-01
8.775819999999999732e-01
8.840289999999999537e-01
8.816119999999999512e-01
8.816119999999999512e-01
8.783879999999999466e-01
8.775819999999999732e-01
8.816119999999999512e-01
8.848350000000000382e-01
8.928939999999999655e-01
8.937000000000000499e-01
8.840289999999999537e-01
8.824180000000000357e-01
8.824180000000000357e-01
8.824180000000000357e-01
8.864469999999999850e-01
8.824180000000000357e-01
8.840289999999999537e-01
8.912820000000000187e-01
8.800000000000000044e-01
8.856410000000000116e-01
8.832229999999999803e-01
8.904760000000000453e-01
9.009519999999999751e-01
8.848350000000000382e-01
8.896699999999999608e-01
8.751649999999999707e-01
8.888639999999999874e-01
8.888639999999999874e-01
8.840289999999999537e-01
8.840289999999999537e-01
8.872529999999999584e-01
8.904760000000000453e-01
8.896699999999999608e-01
8.888639999999999874e-01
8.920879999999999921e-01
8.961170000000000524e-01
8.888639999999999874e-01
8.904760000000000453e-01
8.896699999999999608e-01
9.009519999999999751e-01
8.969230000000000258e-01
8.977289999999999992e-01
8.920879999999999921e-01
8.888639999999999874e-01
8.945049999999999946e-01
8.920879999999999921e-01
8.961170000000000524e-01
8.961170000000000524e-01
8.856410000000000116e-01
8.969230000000000258e-01
8.945049999999999946e-01
8.961170000000000524e-01
8.977289999999999992e-01
8.920879999999999921e-01
9.033700000000000063e-01
8.993409999999999460e-01
9.049819999999999531e-01
8.961170000000000524e-01
9.017579999999999485e-01
9.049819999999999531e-01
9.162639999999999674e-01
9.041759999999999797e-01
9.065929999999999822e-01
9.049819999999999531e-01
9.057880000000000376e-01
9.098169999999999868e-01
9.114290000000000447e-01
9.090110000000000134e-01
9.090110000000000134e-01
9.065929999999999822e-01
9.098169999999999868e-01
9.090110000000000134e-01
9.073989999999999556e-01
9.065929999999999822e-01
8.993409999999999460e-01
9.025640000000000329e-01
9.049819999999999531e-01
9.025640000000000329e-01
9.041759999999999797e-01
9.082050000000000400e-01
9.041759999999999797e-01
9.049819999999999531e-01
9.009519999999999751e-01
9.033700000000000063e-01
9.017579999999999485e-01
9.009519999999999751e-01
8.985349999999999726e-01
8.864469999999999850e-01
8.945049999999999946e-01
8.977289999999999992e-01
8.969230000000000258e-01
8.993409999999999460e-01
8.856410000000000116e-01
8.928939999999999655e-01
8.937000000000000499e-01
8.904760000000000453e-01
8.904760000000000453e-01
8.912820000000000187e-01
8.961170000000000524e-01
8.872529999999999584e-01
8.880590000000000428e-01
8.872529999999999584e-01
8.864469999999999850e-01
8.888639999999999874e-01
8.880590000000000428e-01
8.840289999999999537e-01
8.856410000000000116e-01
8.840289999999999537e-01
8.824180000000000357e-01
8.775819999999999732e-01
8.848350000000000382e-01
8.872529999999999584e-01
8.824180000000000357e-01
8.832229999999999803e-01
8.824180000000000357e-01
8.904760000000000453e-01
8.840289999999999537e-01
8.888639999999999874e-01
8.751649999999999707e-01
8.888639999999999874e-01
8.856410000000000116e-01
8.824180000000000357e-01
8.993409999999999460e-01
8.864469999999999850e-01
8.856410000000000116e-01
8.864469999999999850e-01
8.928939999999999655e-01
8.864469999999999850e-01
8.864469999999999850e-01
8.880590000000000428e-01
8.864469999999999850e-01
8.880590000000000428e-01
8.888639999999999874e-01
8.880590000000000428e-01
8.920879999999999921e-01
8.945049999999999946e-01
8.912820000000000187e-01
8.888639999999999874e-01
8.904760000000000453e-01
8.864469999999999850e-01
8.783879999999999466e-01
8.848350000000000382e-01
8.888639999999999874e-01
8.977289999999999992e-01
8.856410000000000116e-01
8.888639999999999874e-01
8.904760000000000453e-01
8.808059999999999778e-01
8.912820000000000187e-01
8.904760000000000453e-01
8.937000000000000499e-01
8.896699999999999608e-01
8.872529999999999584e-01
8.945049999999999946e-01
8.920879999999999921e-01
8.880590000000000428e-01
8.864469999999999850e-01
8.808059999999999778e-01
8.888639999999999874e-01
8.888639999999999874e-01
8.920879999999999921e-01
8.920879999999999921e-01
8.912820000000000187e-01
8.912820000000000187e-01
8.888639999999999874e-01
8.888639999999999874e-01
8.888639999999999874e-01
8.880590000000000428e-01
8.864469999999999850e-01
8.880590000000000428e-01
8.872529999999999584e-01
8.953109999999999680e-01
8.904760000000000453e-01
8.872529999999999584e-01
8.856410000000000116e-01
8.808059999999999778e-01
8.896699999999999608e-01
8.888639999999999874e-01
8.864469999999999850e-01
8.856410000000000116e-01
8.848350000000000382e-01
8.872529999999999584e-01
8.904760000000000453e-01
8.856410000000000116e-01
8.856410000000000116e-01
8.880590000000000428e-01
8.912820000000000187e-01
8.912820000000000187e-01
8.904760000000000453e-01
8.856410000000000116e-01
8.872529999999999584e-01
8.896699999999999608e-01
8.840289999999999537e-01
8.920879999999999921e-01
8.912820000000000187e-01
8.920879999999999921e-01
8.977289999999999992e-01
8.920879999999999921e-01
8.896699999999999608e-01
8.872529999999999584e-01
8.928939999999999655e-01
8.880590000000000428e-01
8.937000000000000499e-01
8.953109999999999680e-01
8.920879999999999921e-01
9.057880000000000376e-01
8.945049999999999946e-01
8.904760000000000453e-01
8.937000000000000499e-01
8.904760000000000453e-01
8.840289999999999537e-01
8.904760000000000453e-01
8.928939999999999655e-01
8.969230000000000258e-01
8.888639999999999874e-01
8.912820000000000187e-01
8.832229999999999803e-01
8.961170000000000524e-01
8.856410000000000116e-01
8.896699999999999608e-01
8.888639999999999874e-01
8.937000000000000499e-01
8.848350000000000382e-01
8.848350000000000382e-01
8.856410000000000116e-01
8.856410000000000116e-01
8.880590000000000428e-01
8.848350000000000382e-01
8.848350000000000382e-01
8.856410000000000116e-01
8.896699999999999608e-01
8.904760000000000453e-01
8.824180000000000357e-01
8.840289999999999537e-01
8.791940000000000310e-01
8.816119999999999512e-01
8.840289999999999537e-01
8.808059999999999778e-01
8.856410000000000116e-01
8.808059999999999778e-01
8.775819999999999732e-01
8.864469999999999850e-01
8.832229999999999803e-01
8.880590000000000428e-01
8.872529999999999584e-01
8.832229999999999803e-01
8.864469999999999850e-01
8.832229999999999803e-01
8.872529999999999584e-01
8.840289999999999537e-01
8.767770000000000286e-01
8.864469999999999850e-01
8.832229999999999803e-01
8.920879999999999921e-01
8.848350000000000382e-01
8.920879999999999921e-01
8.928939999999999655e-01
8.912820000000000187e-01
8.993409999999999460e-01
9.090110000000000134e-01
9.178749999999999964e-01
9.243219999999999770e-01
9.283519999999999550e-01
9.339929999999999621e-01
9.404400000000000537e-01
9.533329999999999860e-01
9.597799999999999665e-01
9.396339999999999693e-01
9.202930000000000277e-01
8.840289999999999537e-01
8.751649999999999707e-01
8.679120000000000168e-01
8.598529999999999784e-01
8.590480000000000338e-01
8.606589999999999518e-01
8.558240000000000292e-01
8.485709999999999642e-01
8.429299999999999571e-01
8.429299999999999571e-01
8.429299999999999571e-01
8.534070000000000267e-01
8.638829999999999565e-01
8.671060000000000434e-01
8.662999999999999590e-01
8.622710000000000097e-01
8.687179999999999902e-01
8.767770000000000286e-01
8.816119999999999512e-01
8.824180000000000357e-01
8.816119999999999512e-01
8.824180000000000357e-01
8.808059999999999778e-01
8.767770000000000286e-01
8.800000000000000044e-01
8.832229999999999803e-01
8.824180000000000357e-01
8.856410000000000116e-01
8.888639999999999874e-01
8.872529999999999584e-01
8.832229999999999803e-01
8.880590000000000428e-01
8.864469999999999850e-01
8.840289999999999537e-01
8.856410000000000116e-01
8.937000000000000499e-01
8.912820000000000187e-01
8.888639999999999874e-01
8.896699999999999608e-01
8.840289999999999537e-01
8.872529999999999584e-01
8.824180000000000357e-01
8.904760000000000453e-01
8.864469999999999850e-01
8.856410000000000116e-01
9.025640000000000329e-01
8.896699999999999608e-01
8.864469999999999850e-01
8.880590000000000428e-01
8.904760000000000453e-01
8.904760000000000453e-01
8.880590000000000428e-01
8.920879999999999921e-01
8.840289999999999537e-01
8.888639999999999874e-01
8.896699999999999608e-01
8.937000000000000499e-01
8.969230000000000258e-01
8.928939999999999655e-01
8.977289999999999992e-01
8.896699999999999608e-01
8.912820000000000187e-01
8.953109999999999680e-01
8.945049999999999946e-01
8.945049999999999946e-01
8.977289999999999992e-01
8.993409999999999460e-01
8.969230000000000258e-01
8.961170000000000524e-01
8.977289999999999992e-01
9.065929999999999822e-01
9.025640000000000329e-01
8.985349999999999726e-01
8.937000000000000499e-01
8.977289999999999992e-01
9.017579999999999485e-01
8.969230000000000258e-01
9.001470000000000304e-01
9.033700000000000063e-01
9.001470000000000304e-01
9.073989999999999556e-01
9.057880000000000376e-01
9.041759999999999797e-01
9.049819999999999531e-01
9.090110000000000134e-01
9.049819999999999531e-01
9.057880000000000376e-01
9.138460000000000472e-01
9.065929999999999822e-01
9.033700000000000063e-01
9.017579999999999485e-01
9.025640000000000329e-01
9.001470000000000304e-01
9.009519999999999751e-01
8.977289999999999992e-01
9.017579999999999485e-01
9.001470000000000304e-01
8.977289999999999992e-01
9.017579999999999485e-01
8.977289999999999992e-01
8.969230000000000258e-01
8.945049999999999946e-01
8.888639999999999874e-01
8.937000000000000499e-01
8.953109999999999680e-01
8.993409999999999460e-01
8.888639999999999874e-01
8.848350000000000382e-01
8.856410000000000116e-01
8.727470000000000505e-01
8.904760000000000453e-01
8.904760000000000453e-01
8.880590000000000428e-01
8.880590000000000428e-01
8.888639999999999874e-01
8.896699999999999608e-01
8.856410000000000116e-01
8.856410000000000116e-01
8.840289999999999537e-01
8.880590000000000428e-01
8.840289999999999537e-01
8.816119999999999512e-01
8.751649999999999707e-01
8.791940000000000310e-01
8.824180000000000357e-01
8.800000000000000044e-01
8.800000000000000044e-01
8.791940000000000310e-01
8.767770000000000286e-01
8.791940000000000310e-01
8.816119999999999512e-01
8.816119999999999512e-01
8.864469999999999850e-01
8.791940000000000310e-01
8.832229999999999803e-01
8.767770000000000286e-01
8.840289999999999537e-01
8.791940000000000310e-01
8.791940000000000310e-01
8.808059999999999778e-01
8.800000000000000044e-01
8.832229999999999803e-01
8.824180000000000357e-01
8.800000000000000044e-01
8.711360000000000214e-01
8.856410000000000116e-01
8.832229999999999803e-01
8.816119999999999512e-01
8.840289999999999537e-01
8.840289999999999537e-01
8.808059999999999778e-01
8.864469999999999850e-01
8.832229999999999803e-01
8.937000000000000499e-01
8.864469999999999850e-01
8.840289999999999537e-01
8.832229999999999803e-01
8.800000000000000044e-01
8.920879999999999921e-01
8.848350000000000382e-01
8.904760000000000453e-01
8.824180000000000357e-01
8.848350000000000382e-01
8.832229999999999803e-01
8.832229999999999803e-01
8.856410000000000116e-01
8.856410000000000116e-01
8.856410000000000116e-01
8.832229999999999803e-01
8.840289999999999537e-01
8.896699999999999608e-01
8.719409999999999661e-01
8.848350000000000382e-01
8.840289999999999537e-01
8.840289999999999537e-01
8.888639999999999874e-01
8.775819999999999732e-01
8.824180000000000357e-01
8.856410000000000116e-01
8.832229999999999803e-01
8.808059999999999778e-01
8.856410000000000116e-01
8.808059999999999778e-01
8.816119999999999512e-01
8.767770000000000286e-01
8.816119999999999512e-01
8.848350000000000382e-01
8.816119999999999512e-01
8.848350000000000382e-01
8.832229999999999803e-01
8.808059999999999778e-01
8.816119999999999512e-01
8.800000000000000044e-01
8.856410000000000116e-01
8.856410000000000116e-01
8.816119999999999512e-01
8.791940000000000310e-01
8.808059999999999778e-01
8.783879999999999466e-01
8.856410000000000116e-01
8.824180000000000357e-01
8.832229999999999803e-01
8.735530000000000239e-01
8.824180000000000357e-01
8.808059999999999778e-01
8.840289999999999537e-01
8.840289999999999537e-01
8.800000000000000044e-01
8.816119999999999512e-01
8.816119999999999512e-01
8.840289999999999537e-01
8.840289999999999537e-01
8.824180000000000357e-01
8.864469999999999850e-01
8.832229999999999803e-01
8.872529999999999584e-01
8.824180000000000357e-01
8.824180000000000357e-01
8.816119999999999512e-01
8.880590000000000428e-01
8.872529999999999584e-01
8.840289999999999537e-01
8.856410000000000116e-01
8.864469999999999850e-01
8.832229999999999803e-01
8.864469999999999850e-01
8.856410000000000116e-01
8.824180000000000357e-01
8.864469999999999850e-01
8.856410000000000116e-01
8.920879999999999921e-01
8.759710000000000552e-01
8.791940000000000310e-01
8.832229999999999803e-01
8.824180000000000357e-01
8.816119999999999512e-01
8.816119999999999512e-01
8.743589999999999973e-01
8.808059999999999778e-01
8.816119999999999512e-01
8.832229999999999803e-01
8.791940000000000310e-01
8.775819999999999732e-01
8.775819999999999732e-01
8.880590000000000428e-01
8.767770000000000286e-01
8.767770000000000286e-01
8.800000000000000044e-01
8.767770000000000286e-01
8.800000000000000044e-01
8.703300000000000480e-01
8.751649999999999707e-01
8.759710000000000552e-01
8.791940000000000310e-01
8.904760000000000453e-01
8.791940000000000310e-01
8.816119999999999512e-01
8.775819999999999732e-01
8.864469999999999850e-01
8.791940000000000310e-01
8.767770000000000286e-01
8.775819999999999732e-01
8.816119999999999512e-01
8.824180000000000357e-01
8.775819999999999732e-01
8.759710000000000552e-01
8.783879999999999466e-01
8.840289999999999537e-01
8.783879999999999466e-01
8.800000000000000044e-01
8.783879999999999466e-01
8.808059999999999778e-01
8.840289999999999537e-01
8.791940000000000310e-01
8.800000000000000044e-01
8.751649999999999707e-01
8.751649999999999707e-01
8.751649999999999707e-01
8.791940000000000310e-01
8.888639999999999874e-01
8.928939999999999655e-01
8.993409999999999460e-01
9.041759999999999797e-01
9.106229999999999603e-01
9.170700000000000518e-01
9.194870000000000543e-01
9.210990000000000011e-01
9.323810000000000153e-01
9.501100000000000101e-01
9.525270000000000126e-01
9.549450000000000438e-01
9.323810000000000153e-01
8.985349999999999726e-01
8.711360000000000214e-01
8.542119999999999713e-01
8.453479999999999883e-01
8.405129999999999546e-01
8.485709999999999642e-01
8.429299999999999571e-01
8.405129999999999546e-01
8.421250000000000124e-01
8.364840000000000053e-01
8.332600000000000007e-01
8.477660000000000196e-01
8.509889999999999954e-01
8.550179999999999447e-01
8.566300000000000026e-01
8.638829999999999565e-01
8.695239999999999636e-01
8.743589999999999973e-01
8.751649999999999707e-01
8.808059999999999778e-01
8.759710000000000552e-01
8.759710000000000552e-01
8.872529999999999584e-01
8.759710000000000552e-01
8.824180000000000357e-01
8.743589999999999973e-01
8.856410000000000116e-01
8.872529999999999584e-01
8.800000000000000044e-01
8.791940000000000310e-01
8.816119999999999512e-01
8.800000000000000044e-01
8.856410000000000116e-01
8.791940000000000310e-01
8.816119999999999512e-01
8.791940000000000310e-01
8.711360000000000214e-01
8.791940000000000310e-01
8.800000000000000044e-01
8.904760000000000453e-01
8.816119999999999512e-01
8.832229999999999803e-01
8.840289999999999537e-01
8.791940000000000310e-01
8.848350000000000382e-01
8.864469999999999850e-01
8.775819999999999732e-01
8.832229999999999803e-01
8.816119999999999512e-01
8.896699999999999608e-01
8.783879999999999466e-01
8.848350000000000382e-01
8.848350000000000382e-01
8.888639999999999874e-01
8.896699999999999608e-01
8.864469999999999850e-01
8.832229999999999803e-01
8.775819999999999732e-01
8.791940000000000310e-01
8.856410000000000116e-01
8.888639999999999874e-01
8.912820000000000187e-01
8.904760000000000453e-01
8.896699999999999608e-01
8.880590000000000428e-01
8.888639999999999874e-01
8.912820000000000187e-01
8.977289999999999992e-01
8.920879999999999921e-01
8.920879999999999921e-01
8.928939999999999655e-01
8.791940000000000310e-01
8.977289999999999992e-01
8.969230000000000258e-01
9.001470000000000304e-01
9.017579999999999485e-01
8.985349999999999726e-01
9.001470000000000304e-01
9.001470000000000304e-01
8.977289999999999992e-01
8.993409999999999460e-01
9.049819999999999531e-01
9.017579999999999485e-01
9.073989999999999556e-01
8.993409999999999460e-01
9.049819999999999531e-01
9.017579999999999485e-01
9.001470000000000304e-01
9.138460000000000472e-01
9.025640000000000329e-01
9.009519999999999751e-01
8.985349999999999726e-01
8.953109999999999680e-01
9.017579999999999485e-01
9.009519999999999751e-01
8.937000000000000499e-01
9.017579999999999485e-01
9.057880000000000376e-01
8.993409999999999460e-01
8.945049999999999946e-01
8.928939999999999655e-01
8.969230000000000258e-01
8.969230000000000258e-01
8.937000000000000499e-01
8.920879999999999921e-01
8.880590000000000428e-01
8.912820000000000187e-01
8.888639999999999874e-01
8.912820000000000187e-01
8.953109999999999680e-01
8.945049999999999946e-01
8.872529999999999584e-01
8.864469999999999850e-01
8.856410000000000116e-01
8.904760000000000453e-01
8.864469999999999850e-01
8.832229999999999803e-01
8.759710000000000552e-01
8.848350000000000382e-01
9.001470000000000304e-01
8.824180000000000357e-01
8.791940000000000310e-01
8.824180000000000357e-01
8.945049999999999946e-01
8.824180000000000357e-01
8.791940000000000310e-01
8.791940000000000310e-01
8.864469999999999850e-01
8.791940000000000310e-01
8.808059999999999778e-01
8.800000000000000044e-01
8.824180000000000357e-01
8.912820000000000187e-01
8.775819999999999732e-01
8.808059999999999778e-01
8.816119999999999512e-01
8.711360000000000214e-01
8.759710000000000552e-01
8.832229999999999803e-01
8.816119999999999512e-01
8.808059999999999778e-01
8.743589999999999973e-01
8.775819999999999732e-01
8.808059999999999778e-01
8.703300000000000480e-01
8.791940000000000310e-01
8.808059999999999778e-01
8.816119999999999512e-01
8.816119999999999512e-01
8.832229999999999803e-01
8.800000000000000044e-01
8.808059999999999778e-01
8.832229999999999803e-01
8.783879999999999466e-01
8.904760000000000453e-01
8.832229999999999803e-01
8.832229999999999803e-01
8.848350000000000382e-01
8.703300000000000480e-01
8.800000000000000044e-01
8.791940000000000310e-01
8.848350000000000382e-01
8.800000000000000044e-01
8.783879999999999466e-01
8.856410000000000116e-01
8.832229999999999803e-01
8.743589999999999973e-01
8.767770000000000286e-01
8.840289999999999537e-01
8.824180000000000357e-01
8.848350000000000382e-01
8.727470000000000505e-01
8.856410000000000116e-01
8.824180000000000357e-01
8.832229999999999803e-01
8.904760000000000453e-01
8.687179999999999902e-01
8.800000000000000044e-01
8.800000000000000044e-01
8.800000000000000044e-01
8.872529999999999584e-01
8.832229999999999803e-01
8.800000000000000044e-01
8.800000000000000044e-01
8.840289999999999537e-01
8.848350000000000382e-01
8.840289999999999537e-01
8.848350000000000382e-01
8.848350000000000382e-01
8.783879999999999466e-01
8.848350000000000382e-01
8.816119999999999512e-01
8.864469999999999850e-01
8.888639999999999874e-01
8.791940000000000310e-01
8.832229999999999803e-01
8.888639999999999874e-01
8.824180000000000357e-01
8.800000000000000044e-01
8.824180000000000357e-01
8.816119999999999512e-01
8.824180000000000357e-01
8.840289999999999537e-01
8.759710000000000552e-01
8.800000000000000044e-01
8.800000000000000044e-01
8.872529999999999584e-01
8.848350000000000382e-01
8.840289999999999537e-01
8.791940000000000310e-01
8.888639999999999874e-01
8.719409999999999661e-01
8.840289999999999537e-01
8.824180000000000357e-01
8.848350000000000382e-01
8.856410000000000116e-01
8.856410000000000116e-01
8.832229999999999803e-01
8.840289999999999537e-01
8.832229999999999803e-01
8.840289999999999537e-01
8.816119999999999512e-01
8.856410000000000116e-01
8.864469999999999850e-01
8.824180000000000357e-01
8.856410000000000116e-01
8.864469999999999850e-01
8.904760000000000453e-01
8.848350000000000382e-01
8.864469999999999850e-01
8.888639999999999874e-01
8.800000000000000044e-01
8.824180000000000357e-01
8.840289999999999537e-01
8.896699999999999608e-01
8.880590000000000428e-01
8.848350000000000382e-01
8.856410000000000116e-01
8.848350000000000382e-01
8.824180000000000357e-01
8.808059999999999778e-01
8.735530000000000239e-01
8.791940000000000310e-01
8.808059999999999778e-01
8.800000000000000044e-01
8.646890000000000409e-01
8.751649999999999707e-01
8.791940000000000310e-01
8.816119999999999512e-01
8.735530000000000239e-01
8.791940000000000310e-01
8.775819999999999732e-01
8.824180000000000357e-01
8.816119999999999512e-01
8.767770000000000286e-01
8.808059999999999778e-01
8.800000000000000044e-01
8.808059999999999778e-01
8.791940000000000310e-01
8.791940000000000310e-01
8.808059999999999778e-01
8.775819999999999732e-01
8.791940000000000310e-01
8.928939999999999655e-01
8.759710000000000552e-01
8.767770000000000286e-01
8.864469999999999850e-01
8.654950000000000143e-01
8.808059999999999778e-01
8.808059999999999778e-01
8.743589999999999973e-01
8.800000000000000044e-01
8.783879999999999466e-01
8.791940000000000310e-01
8.775819999999999732e-01
8.808059999999999778e-01
8.743589999999999973e-01
8.783879999999999466e-01
8.767770000000000286e-01
8.824180000000000357e-01
8.622710000000000097e-01
8.896699999999999608e-01
8.985349999999999726e-01
9.041759999999999797e-01
9.130399999999999627e-01
9.178749999999999964e-01
9.235160000000000036e-01
9.291580000000000394e-01
9.347990000000000466e-01
9.589739999999999931e-01
9.597799999999999665e-01
9.581680000000000197e-01
9.388279999999999959e-01
9.025640000000000329e-01
8.727470000000000505e-01
8.582419999999999494e-01
8.445420000000000149e-01
8.437360000000000415e-01
8.356780000000000319e-01
8.437360000000000415e-01
8.405129999999999546e-01
8.356780000000000319e-01
8.260070000000000467e-01
8.364840000000000053e-01
8.485709999999999642e-01
8.526010000000000533e-01
8.582419999999999494e-01
8.550179999999999447e-01
8.542119999999999713e-01
8.646890000000000409e-01
8.767770000000000286e-01
8.759710000000000552e-01
8.783879999999999466e-01
8.791940000000000310e-01
8.783879999999999466e-01
8.824180000000000357e-01
8.767770000000000286e-01
8.783879999999999466e-01
8.856410000000000116e-01
8.864469999999999850e-01
8.808059999999999778e-01
8.800000000000000044e-01
8.800000000000000044e-01
8.791940000000000310e-01
8.783879999999999466e-01
8.808059999999999778e-01
8.816119999999999512e-01
8.800000000000000044e-01
8.840289999999999537e-01
8.791940000000000310e-01
8.840289999999999537e-01
8.848350000000000382e-01
8.775819999999999732e-01
8.816119999999999512e-01
8.808059999999999778e-01
8.832229999999999803e-01
8.832229999999999803e-01
8.751649999999999707e-01
8.808059999999999778e-01
8.808059999999999778e-01
8.864469999999999850e-01
8.606589999999999518e-01
8.832229999999999803e-01
8.824180000000000357e-01
8.856410000000000116e-01
8.856410000000000116e-01
8.872529999999999584e-01
8.880590000000000428e-01
8.904760000000000453e-01
8.824180000000000357e-01
8.856410000000000116e-01
8.896699999999999608e-01
8.880590000000000428e-01
8.928939999999999655e-01
8.832229999999999803e-01
8.920879999999999921e-01
8.904760000000000453e-01
8.928939999999999655e-01
8.953109999999999680e-01
8.904760000000000453e-01
8.872529999999999584e-01
8.928939999999999655e-01
8.969230000000000258e-01
9.033700000000000063e-01
8.993409999999999460e-01
8.993409999999999460e-01
9.009519999999999751e-01
8.816119999999999512e-01
9.009519999999999751e-01
9.009519999999999751e-01
8.993409999999999460e-01
8.985349999999999726e-01
8.937000000000000499e-01
9.065929999999999822e-01
9.041759999999999797e-01
9.033700000000000063e-01
8.920879999999999921e-01
9.041759999999999797e-01
9.001470000000000304e-01
9.073989999999999556e-01
9.065929999999999822e-01
9.025640000000000329e-01
9.033700000000000063e-01
9.041759999999999797e-01
8.969230000000000258e-01
9.041759999999999797e-01
9.009519999999999751e-01
9.009519999999999751e-01
8.969230000000000258e-01
8.945049999999999946e-01
8.985349999999999726e-01
8.953109999999999680e-01
9.009519999999999751e-01
8.961170000000000524e-01
8.928939999999999655e-01
8.953109999999999680e-01
8.953109999999999680e-01
8.937000000000000499e-01
8.945049999999999946e-01
8.920879999999999921e-01
8.937000000000000499e-01
8.904760000000000453e-01
8.880590000000000428e-01
8.864469999999999850e-01
8.888639999999999874e-01
8.872529999999999584e-01
8.920879999999999921e-01
8.888639999999999874e-01
8.864469999999999850e-01
8.856410000000000116e-01
8.856410000000000116e-01
8.824180000000000357e-01
8.816119999999999512e-01
8.856410000000000116e-01
8.848350000000000382e-01
8.791940000000000310e-01
8.872529999999999584e-01
8.840289999999999537e-01
8.840289999999999537e-01
8.856410000000000116e-01
8.953109999999999680e-01
8.816119999999999512e-01
8.791940000000000310e-01
8.856410000000000116e-01
8.985349999999999726e-01
8.816119999999999512e-01
8.791940000000000310e-01
8.767770000000000286e-01
8.880590000000000428e-01
8.832229999999999803e-01
8.824180000000000357e-01
8.816119999999999512e-01
8.824180000000000357e-01
8.775819999999999732e-01
8.832229999999999803e-01
8.856410000000000116e-01
8.872529999999999584e-01
8.654950000000000143e-01
8.800000000000000044e-01
8.848350000000000382e-01
8.654950000000000143e-01
8.840289999999999537e-01
8.840289999999999537e-01
8.864469999999999850e-01
8.832229999999999803e-01
8.872529999999999584e-01
8.904760000000000453e-01
8.864469999999999850e-01
8.808059999999999778e-01
8.888639999999999874e-01
8.856410000000000116e-01
8.872529999999999584e-01
8.856410000000000116e-01
8.920879999999999921e-01
8.848350000000000382e-01
8.832229999999999803e-01
8.848350000000000382e-01
8.872529999999999584e-01
8.896699999999999608e-01
8.848350000000000382e-01
8.840289999999999537e-01
8.848350000000000382e-01
8.808059999999999778e-01
8.719409999999999661e-01
8.808059999999999778e-01
8.824180000000000357e-01
8.912820000000000187e-01
8.856410000000000116e-01
8.824180000000000357e-01
8.832229999999999803e-01
8.864469999999999850e-01
8.872529999999999584e-01
8.808059999999999778e-01
8.856410000000000116e-01
8.840289999999999537e-01
8.840289999999999537e-01
8.791940000000000310e-01
8.840289999999999537e-01
8.832229999999999803e-01
8.920879999999999921e-01
8.880590000000000428e-01
8.856410000000000116e-01
8.848350000000000382e-01
8.824180000000000357e-01
8.840289999999999537e-01
8.808059999999999778e-01
8.808059999999999778e-01
8.840289999999999537e-01
8.864469999999999850e-01
8.791940000000000310e-01
8.832229999999999803e-01
8.824180000000000357e-01
8.816119999999999512e-01
8.840289999999999537e-01
8.840289999999999537e-01
8.856410000000000116e-01
8.856410000000000116e-01
8.937000000000000499e-01
8.808059999999999778e-01
8.816119999999999512e-01
8.848350000000000382e-01
8.791940000000000310e-01
8.920879999999999921e-01
8.832229999999999803e-01
8.808059999999999778e-01
8.848350000000000382e-01
8.872529999999999584e-01
8.969230000000000258e-01
8.888639999999999874e-01
8.912820000000000187e-01
8.904760000000000453e-01
8.808059999999999778e-01
8.840289999999999537e-01
8.888639999999999874e-01
8.719409999999999661e-01
8.808059999999999778e-01
8.896699999999999608e-01
8.896699999999999608e-01
8.872529999999999584e-01
8.856410000000000116e-01
8.880590000000000428e-01
8.896699999999999608e-01
8.937000000000000499e-01
8.864469999999999850e-01
8.816119999999999512e-01
8.928939999999999655e-01
8.912820000000000187e-01
9.082050000000000400e-01
8.937000000000000499e-01
8.928939999999999655e-01
8.937000000000000499e-01
8.928939999999999655e-01
8.904760000000000453e-01
8.969230000000000258e-01
8.904760000000000453e-01
8.904760000000000453e-01
8.864469999999999850e-01
8.912820000000000187e-01
8.904760000000000453e-01
8.928939999999999655e-01
8.848350000000000382e-01
8.896699999999999608e-01
8.848350000000000382e-01
8.872529999999999584e-01
8.808059999999999778e-01
8.832229999999999803e-01
8.872529999999999584e-01
8.832229999999999803e-01
8.856410000000000116e-01
8.735530000000000239e-01
8.751649999999999707e-01
8.848350000000000382e-01
8.856410000000000116e-01
8.856410000000000116e-01
8.856410000000000116e-01
8.864469999999999850e-01
8.856410000000000116e-01
8.840289999999999537e-01
8.872529999999999584e-01
8.751649999999999707e-01
8.848350000000000382e-01
8.824180000000000357e-01
8.872529999999999584e-01
8.654950000000000143e-01
8.840289999999999537e-01
8.840289999999999537e-01
8.856410000000000116e-01
8.840289999999999537e-01
8.808059999999999778e-01
8.856410000000000116e-01
8.832229999999999803e-01
8.872529999999999584e-01
8.945049999999999946e-01
8.872529999999999584e-01
8.840289999999999537e-01
8.872529999999999584e-01
8.783879999999999466e-01
8.856410000000000116e-01
8.880590000000000428e-01
8.920879999999999921e-01
9.017579999999999485e-01
9.082050000000000400e-01
9.073989999999999556e-01
9.146520000000000206e-01
9.194870000000000543e-01
9.259340000000000348e-01
9.315750000000000419e-01
9.380220000000000224e-01
9.549450000000000438e-01
9.630039999999999711e-01
9.557510000000000172e-01
9.444690000000000030e-01
9.090110000000000134e-01
8.816119999999999512e-01
8.654950000000000143e-01
8.614650000000000363e-01
8.590480000000000338e-01
8.622710000000000097e-01
8.469600000000000461e-01
8.542119999999999713e-01
8.461539999999999617e-01
8.397069999999999812e-01
8.389010000000000078e-01
8.477660000000000196e-01
8.542119999999999713e-01
8.662999999999999590e-01
8.679120000000000168e-01
8.630769999999999831e-01
8.695239999999999636e-01
8.791940000000000310e-01
8.808059999999999778e-01
8.824180000000000357e-01
8.840289999999999537e-01
8.856410000000000116e-01
8.872529999999999584e-01
8.872529999999999584e-01
8.848350000000000382e-01
8.824180000000000357e-01
8.848350000000000382e-01
8.888639999999999874e-01
8.800000000000000044e-01
8.856410000000000116e-01
8.888639999999999874e-01
8.904760000000000453e-01
8.872529999999999584e-01
8.816119999999999512e-01
8.864469999999999850e-01
8.872529999999999584e-01
8.896699999999999608e-01
8.840289999999999537e-01
8.880590000000000428e-01
8.888639999999999874e-01
8.816119999999999512e-01
8.937000000000000499e-01
8.896699999999999608e-01
8.920879999999999921e-01
8.985349999999999726e-01
8.920879999999999921e-01
8.912820000000000187e-01
8.888639999999999874e-01
8.937000000000000499e-01
8.969230000000000258e-01
8.961170000000000524e-01
8.888639999999999874e-01
8.969230000000000258e-01
8.993409999999999460e-01
8.848350000000000382e-01
8.904760000000000453e-01
8.912820000000000187e-01
8.937000000000000499e-01
8.953109999999999680e-01
8.928939999999999655e-01
8.953109999999999680e-01
8.969230000000000258e-01
9.065929999999999822e-01
8.953109999999999680e-01
8.953109999999999680e-01
8.953109999999999680e-01
9.017579999999999485e-01
9.033700000000000063e-01
8.977289999999999992e-01
9.017579999999999485e-01
9.049819999999999531e-01
9.025640000000000329e-01
8.969230000000000258e-01
9.041759999999999797e-01
9.073989999999999556e-01
9.090110000000000134e-01
9.098169999999999868e-01
9.122339999999999893e-01
9.090110000000000134e-01
9.202930000000000277e-01
9.154579999999999940e-01
9.122339999999999893e-01
9.122339999999999893e-01
9.138460000000000472e-01
9.154579999999999940e-01
9.170700000000000518e-01
9.130399999999999627e-01
9.138460000000000472e-01
9.114290000000000447e-01
9.162639999999999674e-01
9.130399999999999627e-01
9.082050000000000400e-01
9.033700000000000063e-01
9.009519999999999751e-01
9.130399999999999627e-01
9.082050000000000400e-01
8.937000000000000499e-01
9.082050000000000400e-01
9.009519999999999751e-01
9.033700000000000063e-01
9.041759999999999797e-01
9.025640000000000329e-01
9.057880000000000376e-01
8.993409999999999460e-01
9.025640000000000329e-01
9.049819999999999531e-01
9.082050000000000400e-01
9.025640000000000329e-01
9.009519999999999751e-01
8.969230000000000258e-01
8.961170000000000524e-01
8.928939999999999655e-01
8.953109999999999680e-01
8.977289999999999992e-01
8.816119999999999512e-01
8.985349999999999726e-01
8.969230000000000258e-01
8.985349999999999726e-01
8.937000000000000499e-01
8.928939999999999655e-01
8.953109999999999680e-01
8.904760000000000453e-01
8.896699999999999608e-01
8.928939999999999655e-01
8.937000000000000499e-01
8.904760000000000453e-01
8.904760000000000453e-01
8.864469999999999850e-01
9.082050000000000400e-01
8.896699999999999608e-01
8.904760000000000453e-01
8.953109999999999680e-01
8.888639999999999874e-01
8.864469999999999850e-01
8.848350000000000382e-01
8.896699999999999608e-01
8.937000000000000499e-01
8.840289999999999537e-01
8.880590000000000428e-01
8.928939999999999655e-01
8.904760000000000453e-01
8.920879999999999921e-01
8.904760000000000453e-01
8.896699999999999608e-01
8.937000000000000499e-01
8.920879999999999921e-01
8.912820000000000187e-01
8.920879999999999921e-01
8.928939999999999655e-01
8.961170000000000524e-01
9.009519999999999751e-01
8.928939999999999655e-01
8.928939999999999655e-01
8.953109999999999680e-01
8.945049999999999946e-01
8.904760000000000453e-01
8.937000000000000499e-01
8.912820000000000187e-01
8.961170000000000524e-01
8.912820000000000187e-01
8.928939999999999655e-01
8.928939999999999655e-01
8.937000000000000499e-01
8.856410000000000116e-01
8.912820000000000187e-01
8.945049999999999946e-01
8.872529999999999584e-01
8.920879999999999921e-01
8.920879999999999921e-01
8.864469999999999850e-01
8.872529999999999584e-01
8.985349999999999726e-01
8.969230000000000258e-01
8.969230000000000258e-01
8.920879999999999921e-01
8.945049999999999946e-01
9.017579999999999485e-01
8.969230000000000258e-01
8.904760000000000453e-01
8.937000000000000499e-01
8.920879999999999921e-01
8.937000000000000499e-01
8.920879999999999921e-01
8.937000000000000499e-01
8.904760000000000453e-01
8.880590000000000428e-01
8.928939999999999655e-01
8.920879999999999921e-01
8.961170000000000524e-01
8.824180000000000357e-01
8.872529999999999584e-01
8.920879999999999921e-01
8.912820000000000187e-01
8.928939999999999655e-01
8.928939999999999655e-01
8.912820000000000187e-01
8.888639999999999874e-01
8.856410000000000116e-01
8.961170000000000524e-01
8.920879999999999921e-01
8.904760000000000453e-01
8.937000000000000499e-01
8.912820000000000187e-01
8.912820000000000187e-01
8.937000000000000499e-01
8.920879999999999921e-01
8.912820000000000187e-01
8.920879999999999921e-01
8.977289999999999992e-01
8.920879999999999921e-01
8.977289999999999992e-01
8.977289999999999992e-01
8.937000000000000499e-01
8.937000000000000499e-01
8.945049999999999946e-01
9.138460000000000472e-01
8.945049999999999946e-01
8.961170000000000524e-01
8.961170000000000524e-01
8.945049999999999946e-01
8.937000000000000499e-01
8.928939999999999655e-01
8.928939999999999655e-01
8.969230000000000258e-01
8.904760000000000453e-01
9.001470000000000304e-01
8.961170000000000524e-01
8.985349999999999726e-01
8.961170000000000524e-01
8.945049999999999946e-01
8.920879999999999921e-01
8.969230000000000258e-01
8.888639999999999874e-01
8.928939999999999655e-01
8.985349999999999726e-01
8.920879999999999921e-01
8.953109999999999680e-01
8.928939999999999655e-01
8.928939999999999655e-01
8.937000000000000499e-01
8.937000000000000499e-01
8.920879999999999921e-01
8.888639999999999874e-01
8.848350000000000382e-01
8.888639999999999874e-01
8.912820000000000187e-01
8.969230000000000258e-01
8.904760000000000453e-01
8.888639999999999874e-01
8.993409999999999460e-01
8.920879999999999921e-01
8.872529999999999584e-01
8.880590000000000428e-01
9.001470000000000304e-01
8.920879999999999921e-01
8.961170000000000524e-01
8.888639999999999874e-01
8.872529999999999584e-01
8.848350000000000382e-01
8.856410000000000116e-01
8.880590000000000428e-01
8.928939999999999655e-01
8.888639999999999874e-01
8.904760000000000453e-01
8.896699999999999608e-01
8.872529999999999584e-01
8.856410000000000116e-01
8.832229999999999803e-01
8.912820000000000187e-01
8.872529999999999584e-01
8.872529999999999584e-01
8.912820000000000187e-01
8.864469999999999850e-01
8.864469999999999850e-01
8.856410000000000116e-01
8.920879999999999921e-01
8.888639999999999874e-01
8.880590000000000428e-01
8.977289999999999992e-01
9.017579999999999485e-01
9.082050000000000400e-01
9.146520000000000206e-01
9.243219999999999770e-01
9.243219999999999770e-01
9.323810000000000153e-01
9.339929999999999621e-01
9.428569999999999451e-01
9.525270000000000126e-01
9.630039999999999711e-01
9.493040000000000367e-01
9.347990000000000466e-01
9.057880000000000376e-01
8.864469999999999850e-01
8.824180000000000357e-01
8.775819999999999732e-01
8.679120000000000168e-01
8.662999999999999590e-01
8.630769999999999831e-01
8.485709999999999642e-01
8.534070000000000267e-01
8.445420000000000149e-01
8.566300000000000026e-01
8.526010000000000533e-01
8.654950000000000143e-01
8.703300000000000480e-01
8.751649999999999707e-01
8.783879999999999466e-01
8.711360000000000214e-01
8.751649999999999707e-01
8.848350000000000382e-01
8.872529999999999584e-01
8.808059999999999778e-01
8.912820000000000187e-01
8.888639999999999874e-01
8.864469999999999850e-01
8.896699999999999608e-01
8.856410000000000116e-01
8.896699999999999608e-01
8.920879999999999921e-01
8.872529999999999584e-01
8.961170000000000524e-01
8.937000000000000499e-01
8.937000000000000499e-01
8.912820000000000187e-01
8.872529999999999584e-01
8.872529999999999584e-01
8.880590000000000428e-01
8.800000000000000044e-01
8.896699999999999608e-01
8.872529999999999584e-01
8.904760000000000453e-01
8.953109999999999680e-01
8.912820000000000187e-01
8.953109999999999680e-01
8.953109999999999680e-01
8.920879999999999921e-01
8.937000000000000499e-01
8.872529999999999584e-01
8.937000000000000499e-01
8.928939999999999655e-01
9.001470000000000304e-01
8.920879999999999921e-01
8.961170000000000524e-01
8.985349999999999726e-01
8.969230000000000258e-01
8.945049999999999946e-01
8.953109999999999680e-01
8.961170000000000524e-01
8.969230000000000258e-01
8.969230000000000258e-01
8.912820000000000187e-01
9.041759999999999797e-01
9.001470000000000304e-01
8.985349999999999726e-01
9.090110000000000134e-01
9.025640000000000329e-01
9.017579999999999485e-01
8.985349999999999726e-01
8.985349999999999726e-01
9.130399999999999627e-01
9.049819999999999531e-01
9.114290000000000447e-01
9.025640000000000329e-01
9.122339999999999893e-01
9.065929999999999822e-01
9.082050000000000400e-01
9.098169999999999868e-01
9.138460000000000472e-01
9.130399999999999627e-01
9.114290000000000447e-01
9.154579999999999940e-01
9.122339999999999893e-01
9.243219999999999770e-01
9.170700000000000518e-01
9.154579999999999940e-01
9.170700000000000518e-01
9.178749999999999964e-01
9.130399999999999627e-01
9.154579999999999940e-01
9.138460000000000472e-01
9.154579999999999940e-01
9.146520000000000206e-01
9.138460000000000472e-01
9.122339999999999893e-01
9.130399999999999627e-01
9.106229999999999603e-01
9.065929999999999822e-01
9.082050000000000400e-01
9.049819999999999531e-01
9.138460000000000472e-01
9.090110000000000134e-01
9.049819999999999531e-01
9.057880000000000376e-01
9.098169999999999868e-01
9.114290000000000447e-01
9.033700000000000063e-01
9.033700000000000063e-01
9.033700000000000063e-01
9.001470000000000304e-01
9.001470000000000304e-01
8.985349999999999726e-01
9.009519999999999751e-01
8.977289999999999992e-01
8.961170000000000524e-01
8.969230000000000258e-01
8.953109999999999680e-01
8.961170000000000524e-01
8.848350000000000382e-01
8.928939999999999655e-01
8.928939999999999655e-01
9.001470000000000304e-01
8.961170000000000524e-01
8.920879999999999921e-01
8.888639999999999874e-01
8.880590000000000428e-01
8.864469999999999850e-01
8.848350000000000382e-01
8.864469999999999850e-01
8.912820000000000187e-01
8.896699999999999608e-01
9.090110000000000134e-01
8.888639999999999874e-01
8.872529999999999584e-01
8.904760000000000453e-01
8.912820000000000187e-01
8.888639999999999874e-01
8.912820000000000187e-01
8.896699999999999608e-01
8.945049999999999946e-01
8.912820000000000187e-01
8.880590000000000428e-01
8.904760000000000453e-01
8.888639999999999874e-01
8.904760000000000453e-01
8.904760000000000453e-01
8.896699999999999608e-01
8.928939999999999655e-01
8.912820000000000187e-01
8.864469999999999850e-01
8.888639999999999874e-01
8.896699999999999608e-01
8.920879999999999921e-01
8.937000000000000499e-01
8.937000000000000499e-01
8.937000000000000499e-01
8.953109999999999680e-01
8.912820000000000187e-01
8.920879999999999921e-01
8.888639999999999874e-01
8.912820000000000187e-01
8.928939999999999655e-01
8.912820000000000187e-01
8.937000000000000499e-01
8.904760000000000453e-01
8.928939999999999655e-01
8.969230000000000258e-01
8.920879999999999921e-01
8.920879999999999921e-01
8.928939999999999655e-01
8.920879999999999921e-01
8.920879999999999921e-01
8.912820000000000187e-01
8.912820000000000187e-01
8.896699999999999608e-01
8.961170000000000524e-01
8.904760000000000453e-01
8.888639999999999874e-01
8.880590000000000428e-01
8.880590000000000428e-01
8.872529999999999584e-01
8.880590000000000428e-01
8.888639999999999874e-01
8.920879999999999921e-01
8.961170000000000524e-01
8.896699999999999608e-01
8.872529999999999584e-01
8.872529999999999584e-01
8.912820000000000187e-01
8.904760000000000453e-01
8.896699999999999608e-01
8.904760000000000453e-01
8.856410000000000116e-01
8.888639999999999874e-01
8.904760000000000453e-01
8.864469999999999850e-01
8.945049999999999946e-01
8.888639999999999874e-01
8.928939999999999655e-01
8.896699999999999608e-01
8.888639999999999874e-01
8.816119999999999512e-01
8.856410000000000116e-01
8.872529999999999584e-01
8.856410000000000116e-01
8.751649999999999707e-01
8.880590000000000428e-01
8.856410000000000116e-01
8.896699999999999608e-01
8.920879999999999921e-01
8.904760000000000453e-01
8.864469999999999850e-01
8.880590000000000428e-01
8.896699999999999608e-01
8.928939999999999655e-01
8.888639999999999874e-01
8.912820000000000187e-01
8.896699999999999608e-01
8.840289999999999537e-01
8.904760000000000453e-01
8.896699999999999608e-01
8.920879999999999921e-01
8.912820000000000187e-01
8.937000000000000499e-01
8.912820000000000187e-01
8.953109999999999680e-01
8.920879999999999921e-01
8.920879999999999921e-01
8.888639999999999874e-01
8.880590000000000428e-01
8.896699999999999608e-01
8.937000000000000499e-01
8.872529999999999584e-01
8.904760000000000453e-01
8.896699999999999608e-01
8.912820000000000187e-01
8.945049999999999946e-01
8.872529999999999584e-01
8.824180000000000357e-01
8.896699999999999608e-01
8.937000000000000499e-01
8.864469999999999850e-01
8.856410000000000116e-01
8.961170000000000524e-01
9.017579999999999485e-01
8.856410000000000116e-01
8.840289999999999537e-01
8.848350000000000382e-01
8.864469999999999850e-01
8.824180000000000357e-01
8.848350000000000382e-01
8.840289999999999537e-01
8.824180000000000357e-01
8.856410000000000116e-01
8.864469999999999850e-01
8.840289999999999537e-01
8.767770000000000286e-01
8.872529999999999584e-01
8.832229999999999803e-01
8.824180000000000357e-01
8.840289999999999537e-01
8.832229999999999803e-01
8.848350000000000382e-01
8.824180000000000357e-01
8.824180000000000357e-01
8.840289999999999537e-01
8.719409999999999661e-01
8.816119999999999512e-01
8.832229999999999803e-01
8.840289999999999537e-01
8.904760000000000453e-01
8.824180000000000357e-01
8.783879999999999466e-01
8.816119999999999512e-01
8.800000000000000044e-01
8.808059999999999778e-01
8.808059999999999778e-01
8.816119999999999512e-01
8.848350000000000382e-01
8.808059999999999778e-01
8.945049999999999946e-01
8.985349999999999726e-01
9.049819999999999531e-01
9.130399999999999627e-01
9.162639999999999674e-01
9.227109999999999479e-01
9.291580000000000394e-01
9.315750000000000419e-01
9.420509999999999717e-01
9.573629999999999640e-01
9.613920000000000243e-01
9.420509999999999717e-01
8.904760000000000453e-01
8.791940000000000310e-01
8.630769999999999831e-01
8.526010000000000533e-01
8.542119999999999713e-01
8.453479999999999883e-01
8.445420000000000149e-01
8.453479999999999883e-01
8.405129999999999546e-01
8.429299999999999571e-01
8.389010000000000078e-01
8.437360000000000415e-01
8.550179999999999447e-01
8.679120000000000168e-01
8.638829999999999565e-01
8.614650000000000363e-01
8.630769999999999831e-01
8.687179999999999902e-01
8.824180000000000357e-01
8.824180000000000357e-01
8.848350000000000382e-01
8.816119999999999512e-01
8.816119999999999512e-01
8.824180000000000357e-01
8.816119999999999512e-01
8.872529999999999584e-01
8.679120000000000168e-01
8.808059999999999778e-01
8.808059999999999778e-01
8.824180000000000357e-01
8.856410000000000116e-01
8.832229999999999803e-01
8.800000000000000044e-01
8.840289999999999537e-01
8.824180000000000357e-01
8.896699999999999608e-01
8.872529999999999584e-01
8.856410000000000116e-01
8.816119999999999512e-01
8.848350000000000382e-01
8.864469999999999850e-01
8.856410000000000116e-01
8.840289999999999537e-01
8.888639999999999874e-01
8.920879999999999921e-01
8.856410000000000116e-01
8.896699999999999608e-01
8.880590000000000428e-01
8.816119999999999512e-01
8.872529999999999584e-01
8.880590000000000428e-01
8.880590000000000428e-01
8.937000000000000499e-01
8.928939999999999655e-01
8.880590000000000428e-01
8.904760000000000453e-01
8.872529999999999584e-01
8.920879999999999921e-01
8.888639999999999874e-01
8.904760000000000453e-01
8.904760000000000453e-01
8.953109999999999680e-01
8.977289999999999992e-01
8.920879999999999921e-01
8.937000000000000499e-01
8.977289999999999992e-01
8.985349999999999726e-01
8.945049999999999946e-01
8.977289999999999992e-01
9.049819999999999531e-01
8.993409999999999460e-01
8.993409999999999460e-01
9.001470000000000304e-01
9.025640000000000329e-01
8.993409999999999460e-01
9.033700000000000063e-01
8.993409999999999460e-01
9.041759999999999797e-01
9.041759999999999797e-01
9.001470000000000304e-01
9.017579999999999485e-01
9.065929999999999822e-01
9.057880000000000376e-01
9.122339999999999893e-01
9.057880000000000376e-01
9.073989999999999556e-01
9.025640000000000329e-01
8.993409999999999460e-01
9.106229999999999603e-01
9.057880000000000376e-01
9.049819999999999531e-01
9.065929999999999822e-01
9.049819999999999531e-01
9.033700000000000063e-01
9.001470000000000304e-01
9.025640000000000329e-01
9.001470000000000304e-01
9.009519999999999751e-01
9.009519999999999751e-01
8.977289999999999992e-01
9.017579999999999485e-01
8.985349999999999726e-01
8.945049999999999946e-01
8.961170000000000524e-01
9.009519999999999751e-01
8.872529999999999584e-01
8.928939999999999655e-01
8.953109999999999680e-01
9.009519999999999751e-01
8.993409999999999460e-01
8.896699999999999608e-01
8.848350000000000382e-01
8.896699999999999608e-01
8.904760000000000453e-01
8.904760000000000453e-01
8.904760000000000453e-01
8.848350000000000382e-01
8.840289999999999537e-01
8.969230000000000258e-01
8.872529999999999584e-01
8.840289999999999537e-01
8.840289999999999537e-01
8.816119999999999512e-01
8.816119999999999512e-01
8.840289999999999537e-01
8.840289999999999537e-01
8.840289999999999537e-01
8.848350000000000382e-01
8.832229999999999803e-01
8.848350000000000382e-01
8.800000000000000044e-01
8.824180000000000357e-01
8.783879999999999466e-01
8.816119999999999512e-01
8.832229999999999803e-01
8.743589999999999973e-01
8.824180000000000357e-01
8.816119999999999512e-01
8.816119999999999512e-01
8.880590000000000428e-01
8.824180000000000357e-01
8.824180000000000357e-01
8.824180000000000357e-01
8.791940000000000310e-01
8.864469999999999850e-01
8.848350000000000382e-01
8.816119999999999512e-01
8.864469999999999850e-01
8.832229999999999803e-01
8.816119999999999512e-01
8.872529999999999584e-01
8.864469999999999850e-01
8.824180000000000357e-01
8.783879999999999466e-01
8.783879999999999466e-01
8.791940000000000310e-01
8.880590000000000428e-01
8.888639999999999874e-01
8.872529999999999584e-01
8.896699999999999608e-01
8.848350000000000382e-01
8.816119999999999512e-01
8.824180000000000357e-01
8.888639999999999874e-01
8.872529999999999584e-01
8.840289999999999537e-01
8.808059999999999778e-01
8.775819999999999732e-01
8.848350000000000382e-01
8.832229999999999803e-01
8.872529999999999584e-01
8.832229999999999803e-01
8.840289999999999537e-01
8.856410000000000116e-01
8.856410000000000116e-01
8.816119999999999512e-01
8.856410000000000116e-01
8.888639999999999874e-01
8.904760000000000453e-01
8.872529999999999584e-01
8.864469999999999850e-01
8.856410000000000116e-01
8.800000000000000044e-01
8.671060000000000434e-01
8.824180000000000357e-01
8.816119999999999512e-01
8.840289999999999537e-01
8.832229999999999803e-01
8.808059999999999778e-01
8.824180000000000357e-01
8.832229999999999803e-01
8.832229999999999803e-01
8.800000000000000044e-01
8.808059999999999778e-01
8.775819999999999732e-01
8.574359999999999760e-01
8.638829999999999565e-01
8.767770000000000286e-01
8.783879999999999466e-01
8.824180000000000357e-01
8.888639999999999874e-01
8.816119999999999512e-01
8.888639999999999874e-01
8.816119999999999512e-01
8.840289999999999537e-01
8.775819999999999732e-01
8.808059999999999778e-01
8.791940000000000310e-01
8.888639999999999874e-01
8.767770000000000286e-01
8.888639999999999874e-01
8.832229999999999803e-01
8.896699999999999608e-01
8.920879999999999921e-01
8.953109999999999680e-01
8.969230000000000258e-01
8.928939999999999655e-01
8.920879999999999921e-01
8.977289999999999992e-01
8.928939999999999655e-01
8.904760000000000453e-01
8.880590000000000428e-01
9.033700000000000063e-01
8.937000000000000499e-01
8.904760000000000453e-01
8.880590000000000428e-01
8.928939999999999655e-01
8.662999999999999590e-01
8.832229999999999803e-01
8.848350000000000382e-01
8.920879999999999921e-01
8.888639999999999874e-01
8.808059999999999778e-01
8.791940000000000310e-01
8.791940000000000310e-01
8.800000000000000044e-01
8.783879999999999466e-01
8.840289999999999537e-01
8.920879999999999921e-01
8.824180000000000357e-01
8.727470000000000505e-01
8.824180000000000357e-01
8.808059999999999778e-01
8.711360000000000214e-01
8.727470000000000505e-01
8.791940000000000310e-01
8.856410000000000116e-01
8.856410000000000116e-01
8.953109999999999680e-01
8.856410000000000116e-01
8.800000000000000044e-01
8.783879999999999466e-01
8.767770000000000286e-01
8.832229999999999803e-01
8.824180000000000357e-01
8.832229999999999803e-01
8.840289999999999537e-01
8.888639999999999874e-01
8.856410000000000116e-01
8.808059999999999778e-01
8.791940000000000310e-01
8.808059999999999778e-01
8.928939999999999655e-01
8.832229999999999803e-01
8.808059999999999778e-01
8.824180000000000357e-01
8.808059999999999778e-01
8.864469999999999850e-01
8.791940000000000310e-01
8.743589999999999973e-01
8.759710000000000552e-01
8.880590000000000428e-01
8.969230000000000258e-01
9.017579999999999485e-01
9.146520000000000206e-01
9.170700000000000518e-01
9.227109999999999479e-01
9.283519999999999550e-01
9.323810000000000153e-01
9.396339999999999693e-01
9.613920000000000243e-01
9.589739999999999931e-01
9.460809999999999498e-01
9.251279999999999504e-01
8.928939999999999655e-01
8.638829999999999565e-01
8.501830000000000220e-01
8.453479999999999883e-01
8.356780000000000319e-01
8.340659999999999741e-01
8.421250000000000124e-01
8.372889999999999500e-01
8.284249999999999670e-01
8.348719999999999475e-01
8.501830000000000220e-01
8.582419999999999494e-01
8.614650000000000363e-01
8.630769999999999831e-01
8.598529999999999784e-01
8.598529999999999784e-01
8.719409999999999661e-01
8.791940000000000310e-01
8.783879999999999466e-01
8.759710000000000552e-01
8.808059999999999778e-01
8.888639999999999874e-01
8.808059999999999778e-01
8.880590000000000428e-01
8.872529999999999584e-01
8.824180000000000357e-01
8.808059999999999778e-01
8.743589999999999973e-01
8.800000000000000044e-01
8.719409999999999661e-01
8.671060000000000434e-01
8.614650000000000363e-01
8.574359999999999760e-01
8.534070000000000267e-01
8.566300000000000026e-01
8.646890000000000409e-01
8.679120000000000168e-01
8.711360000000000214e-01
8.654950000000000143e-01
8.598529999999999784e-01
8.695239999999999636e-01
8.743589999999999973e-01
8.759710000000000552e-01
8.904760000000000453e-01
8.945049999999999946e-01
8.961170000000000524e-01
8.945049999999999946e-01
9.114290000000000447e-01
9.186809999999999699e-01
9.283519999999999550e-01
9.404400000000000537e-01
9.428569999999999451e-01
9.444690000000000030e-01
9.315750000000000419e-01
9.227109999999999479e-01
8.985349999999999726e-01
8.945049999999999946e-01
8.606589999999999518e-01
8.453479999999999883e-01
8.469600000000000461e-01
8.542119999999999713e-01
8.622710000000000097e-01
8.679120000000000168e-01
8.751649999999999707e-01
8.840289999999999537e-01
9.001470000000000304e-01
8.824180000000000357e-01
8.880590000000000428e-01
8.977289999999999992e-01
8.864469999999999850e-01
8.993409999999999460e-01
8.840289999999999537e-01
8.920879999999999921e-01
9.001470000000000304e-01
8.977289999999999992e-01
9.025640000000000329e-01
9.065929999999999822e-01
9.114290000000000447e-01
9.178749999999999964e-01
9.114290000000000447e-01
9.186809999999999699e-01
9.299629999999999841e-01
9.315750000000000419e-01
9.452749999999999764e-01
9.557510000000000172e-01
9.428569999999999451e-01
9.388279999999999959e-01
9.251279999999999504e-01
9.178749999999999964e-01
9.017579999999999485e-01
8.791940000000000310e-01
8.824180000000000357e-01
9.009519999999999751e-01
9.202930000000000277e-01
9.468860000000000054e-01
9.533329999999999860e-01
9.589739999999999931e-01
9.476919999999999789e-01
9.412449999999999983e-01
9.202930000000000277e-01
9.283519999999999550e-01
8.904760000000000453e-01
8.800000000000000044e-01
8.679120000000000168e-01
8.405129999999999546e-01
8.340659999999999741e-01
8.517949999999999688e-01
8.574359999999999760e-01
8.945049999999999946e-01
9.259340000000000348e-01
9.194870000000000543e-01
9.460809999999999498e-01
9.509159999999999835e-01
9.347990000000000466e-01
9.073989999999999556e-01
9.017579999999999485e-01
9.114290000000000447e-01
9.138460000000000472e-01
9.138460000000000472e-01
9.251279999999999504e-01
9.251279999999999504e-01
9.323810000000000153e-01
9.210990000000000011e-01
8.961170000000000524e-01
8.558240000000000292e-01
8.219779999999999864e-01
7.953850000000000087e-01
8.356780000000000319e-01
8.582419999999999494e-01
8.816119999999999512e-01
9.259340000000000348e-01
9.396339999999999693e-01
9.251279999999999504e-01
8.912820000000000187e-01
8.566300000000000026e-01
8.662999999999999590e-01
8.824180000000000357e-01
9.049819999999999531e-01
9.476919999999999789e-01
1.004907999999999912e+00
1.020219999999999905e+00
9.863739999999999730e-01
9.621979999999999977e-01
9.428569999999999451e-01
9.194870000000000543e-01
9.122339999999999893e-01
9.186809999999999699e-01
9.033700000000000063e-01
9.041759999999999797e-01
9.114290000000000447e-01
9.186809999999999699e-01
9.194870000000000543e-01
9.307689999999999575e-01
9.243219999999999770e-01
8.800000000000000044e-01
8.292310000000000514e-01
8.340659999999999741e-01
8.179490000000000371e-01
8.227839999999999598e-01
8.501830000000000220e-01
8.816119999999999512e-01
9.235160000000000036e-01
9.114290000000000447e-01
9.202930000000000277e-01
9.154579999999999940e-01
9.219049999999999745e-01
9.339929999999999621e-01
9.380220000000000224e-01
9.291580000000000394e-01
9.114290000000000447e-01
8.727470000000000505e-01
8.292310000000000514e-01
7.986079999999999846e-01
8.187550000000000106e-01
8.526010000000000533e-01
8.953109999999999680e-01
8.953109999999999680e-01
8.993409999999999460e-01
9.388279999999999959e-01
9.565569999999999906e-01
1.004907999999999912e+00
1.029084000000000110e+00
1.026666999999999996e+00
9.976559999999999873e-01
9.307689999999999575e-01
9.001470000000000304e-01
8.880590000000000428e-01
8.872529999999999584e-01
9.122339999999999893e-01
9.484979999999999523e-01
8.912820000000000187e-01
8.735530000000000239e-01
8.832229999999999803e-01
8.969230000000000258e-01
9.452749999999999764e-01
9.621979999999999977e-01
1.002491000000000021e+00
1.010548999999999920e+00
9.573629999999999640e-01
9.098169999999999868e-01
8.969230000000000258e-01
8.848350000000000382e-01
8.953109999999999680e-01
8.824180000000000357e-01
9.098169999999999868e-01
8.687179999999999902e-01
8.453479999999999883e-01
8.316480000000000539e-01
8.090840000000000254e-01
8.260070000000000467e-01
8.896699999999999608e-01
9.468860000000000054e-01
9.493040000000000367e-01
9.219049999999999745e-01
9.275459999999999816e-01
9.444690000000000030e-01
9.783150000000000457e-01
9.573629999999999640e-01
9.331869999999999887e-01
9.605860000000000509e-01
9.992670000000000163e-01
9.871790000000000287e-01
9.799269999999999925e-01
9.501100000000000101e-01
8.824180000000000357e-01
8.437360000000000415e-01
8.517949999999999688e-01
8.445420000000000149e-01
8.695239999999999636e-01
8.703300000000000480e-01
8.759710000000000552e-01
9.114290000000000447e-01
9.041759999999999797e-01
8.880590000000000428e-01
8.727470000000000505e-01
8.453479999999999883e-01
8.268130000000000202e-01
8.364840000000000053e-01
8.703300000000000480e-01
9.557510000000000172e-01
1.009743999999999975e+00
1.030696000000000057e+00
1.025860999999999912e+00
1.021832000000000074e+00
9.928209999999999535e-01
9.194870000000000543e-01
8.687179999999999902e-01
8.671060000000000434e-01
8.800000000000000044e-01
8.937000000000000499e-01
8.687179999999999902e-01
9.049819999999999531e-01
1.100805999999999951e+00
1.083077000000000067e+00
9.017579999999999485e-01
7.413920000000000510e-01
6.946520000000000472e-01
8.671060000000000434e-01
1.029889999999999972e+00
1.164468999999999976e+00
1.167691999999999952e+00
1.067765999999999993e+00
8.106959999999999722e-01
6.430770000000000097e-01
6.648349999999999538e-01
7.631499999999999950e-01
7.276920000000000055e-01
6.495239999999999903e-01
7.107689999999999841e-01
8.090840000000000254e-01
9.960440000000000405e-01
1.087911999999999990e+00
1.037949000000000011e+00
1.004102999999999968e+00
9.468860000000000054e-01
9.098169999999999868e-01
9.517219999999999569e-01
1.005713999999999997e+00
1.023443000000000103e+00
8.542119999999999713e-01
7.446150000000000269e-01
8.026370000000000449e-01
1.051647999999999916e+00
1.239414000000000016e+00
1.234579000000000093e+00
1.066154000000000046e+00
9.114290000000000447e-01
8.131140000000000034e-01
6.003659999999999553e-01
5.334799999999999542e-01
6.068130000000000468e-01
9.928209999999999535e-01
1.323223000000000038e+00
1.382050999999999918e+00
1.221684999999999910e+00
9.219049999999999745e-01
7.309160000000000101e-01
9.493040000000000367e-01
1.267619000000000051e+00
1.373993000000000020e+00
1.444102999999999914e+00
1.415092000000000017e+00
1.096776999999999891e+00
9.799269999999999925e-01
7.832970000000000210e-01
6.019780000000000131e-01
3.803659999999999819e-01
5.141390000000000127e-01
8.413190000000000390e-01
7.446150000000000269e-01
6.664470000000000116e-01
9.194870000000000543e-01
1.228938000000000086e+00
1.143515999999999977e+00
1.023443000000000103e+00
8.332600000000000007e-01
9.428569999999999451e-01
1.188644999999999952e+00
1.403810000000000002e+00
1.203149999999999942e+00
9.742859999999999854e-01
7.027109999999999745e-01
5.842490000000000183e-01
8.904760000000000453e-01
1.103223000000000065e+00
1.395750999999999964e+00
1.488425000000000109e+00
1.262783999999999907e+00
7.196339999999999959e-01
5.020510000000000250e-01
9.912090000000000067e-01
1.326446999999999932e+00
1.206374000000000057e+00
1.116117000000000026e+00
9.073989999999999556e-01
9.694509999999999517e-01
1.070183000000000106e+00
9.807329999999999659e-01
7.961899999999999533e-01
5.181679999999999620e-01
7.873259999999999703e-01
1.162050999999999945e+00
1.303077000000000041e+00
1.229743999999999948e+00
9.573629999999999640e-01
8.534070000000000267e-01
9.033700000000000063e-01
1.315164999999999917e+00
1.486007000000000078e+00
1.134651999999999994e+00
7.204399999999999693e-01
8.493770000000000486e-01
1.050842000000000054e+00
1.282929999999999904e+00
1.232966999999999924e+00
1.141904999999999948e+00
9.517219999999999569e-01
7.808789999999999898e-01
9.356039999999999912e-01
1.134651999999999994e+00
1.132233999999999963e+00
8.711360000000000214e-01
5.858609999999999651e-01
4.657879999999999798e-01
9.831499999999999684e-01
1.481978000000000018e+00
1.575458000000000025e+00
1.375604000000000049e+00
1.082270999999999983e+00
1.075018000000000029e+00
1.133845999999999909e+00
1.109669999999999934e+00
8.485709999999999642e-01
5.528210000000000068e-01
6.309890000000000221e-01
9.436630000000000296e-01
1.213626000000000094e+00
1.201537999999999995e+00
1.090330000000000021e+00
1.029084000000000110e+00
1.047619000000000078e+00
1.069377000000000022e+00
1.085495000000000099e+00
1.040365999999999902e+00
1.058901000000000092e+00
1.064542000000000099e+00
1.016996000000000011e+00
1.048424999999999940e+00
1.249084000000000083e+00
1.428790999999999922e+00
1.172527000000000097e+00
8.235900000000000443e-01
6.906229999999999869e-01
7.276920000000000055e-01
8.582419999999999494e-01
1.017802000000000096e+00
1.122563999999999895e+00
1.062124999999999986e+00
1.013773000000000035e+00
1.004907999999999912e+00
1.076629999999999976e+00
1.087105999999999906e+00
1.060513000000000039e+00
9.904030000000000333e-01
9.662269999999999470e-01
9.662269999999999470e-01
1.025860999999999912e+00
1.058095000000000008e+00
1.063736000000000015e+00
1.070183000000000106e+00
1.050037000000000109e+00
1.009743999999999975e+00
9.960440000000000405e-01
9.767029999999999879e-01
9.750919999999999588e-01
9.783150000000000457e-01
1.016996000000000011e+00
1.054065999999999947e+00
1.071795000000000053e+00
1.069377000000000022e+00
1.053260000000000085e+00
1.015384999999999982e+00
9.831499999999999684e-01
9.581680000000000197e-01
9.621979999999999977e-01
9.767029999999999879e-01
9.799269999999999925e-01
9.767029999999999879e-01
9.855679999999999996e-01
1.035530999999999979e+00
1.069377000000000022e+00
1.033919000000000032e+00
1.016189999999999927e+00
1.002491000000000021e+00
1.001684999999999937e+00
9.920149999999999801e-01
9.895969999999999489e-01
9.944319999999999826e-01
9.887909999999999755e-01
1.000072999999999990e+00
1.003297000000000105e+00
1.003297000000000105e+00
9.968500000000000139e-01
9.944319999999999826e-01
9.928209999999999535e-01
9.879850000000000021e-01
9.912090000000000067e-01
9.984619999999999607e-01
9.895969999999999489e-01
9.936260000000000092e-01
9.928209999999999535e-01
9.887909999999999755e-01
9.831499999999999684e-01
9.863739999999999730e-01
9.904030000000000333e-01
9.904030000000000333e-01
9.758970000000000145e-01
9.750919999999999588e-01
9.855679999999999996e-01
9.839560000000000528e-01
9.904030000000000333e-01
1.001684999999999937e+00
9.976559999999999873e-01
9.799269999999999925e-01
9.718679999999999541e-01
9.718679999999999541e-01
9.775089999999999613e-01
9.791210000000000191e-01
9.823439999999999950e-01
9.871790000000000287e-01
9.823439999999999950e-01
9.750919999999999588e-01
9.702560000000000073e-01
9.702560000000000073e-01
9.662269999999999470e-01
9.702560000000000073e-01
9.662269999999999470e-01
9.613920000000000243e-01
9.662269999999999470e-01
9.718679999999999541e-01
9.702560000000000073e-01
9.694509999999999517e-01
9.662269999999999470e-01
9.581680000000000197e-01
9.718679999999999541e-01
9.678390000000000049e-01
9.638099999999999445e-01
9.517219999999999569e-01
9.630039999999999711e-01
9.646150000000000002e-01
9.630039999999999711e-01
9.549450000000000438e-01
9.493040000000000367e-01
9.557510000000000172e-01
9.605860000000000509e-01
9.541389999999999594e-01
9.476919999999999789e-01
9.460809999999999498e-01
9.436630000000000296e-01
9.460809999999999498e-01
9.452749999999999764e-01
9.436630000000000296e-01
9.460809999999999498e-01
9.436630000000000296e-01
9.364099999999999646e-01
9.283519999999999550e-01
9.347990000000000466e-01
9.356039999999999912e-01
9.339929999999999621e-01
9.372160000000000490e-01
9.388279999999999959e-01
9.339929999999999621e-01
9.186809999999999699e-01
9.307689999999999575e-01
9.299629999999999841e-01
9.219049999999999745e-01
9.259340000000000348e-01
9.259340000000000348e-01
9.259340000000000348e-01
9.146520000000000206e-01
9.178749999999999964e-01
9.114290000000000447e-01
9.235160000000000036e-01
9.146520000000000206e-01
9.138460000000000472e-01
9.194870000000000543e-01
9.339929999999999621e-01
9.291580000000000394e-01
9.299629999999999841e-01
9.347990000000000466e-01
9.380220000000000224e-01
9.452749999999999764e-01
9.404400000000000537e-01
9.412449999999999983e-01
9.420509999999999717e-01
9.388279999999999959e-01
9.436630000000000296e-01
9.347990000000000466e-01
9.251279999999999504e-01
9.001470000000000304e-01
8.904760000000000453e-01
8.832229999999999803e-01
8.783879999999999466e-01
8.751649999999999707e-01
8.719409999999999661e-01
8.759710000000000552e-01
8.775819999999999732e-01
8.662999999999999590e-01
8.574359999999999760e-01
8.687179999999999902e-01
8.751649999999999707e-01
8.783879999999999466e-01
8.920879999999999921e-01
8.808059999999999778e-01
8.832229999999999803e-01
8.864469999999999850e-01
8.953109999999999680e-01
8.912820000000000187e-01
8.888639999999999874e-01
8.896699999999999608e-01
9.025640000000000329e-01
8.880590000000000428e-01
8.840289999999999537e-01
8.832229999999999803e-01
8.808059999999999778e-01
8.920879999999999921e-01
8.961170000000000524e-01
8.953109999999999680e-01
8.832229999999999803e-01
8.864469999999999850e-01
8.953109999999999680e-01
8.824180000000000357e-01
8.832229999999999803e-01
8.824180000000000357e-01
8.783879999999999466e-01
8.687179999999999902e-01
8.711360000000000214e-01
8.751649999999999707e-01
8.759710000000000552e-01
8.824180000000000357e-01
8.920879999999999921e-01
8.832229999999999803e-01
8.767770000000000286e-01
8.832229999999999803e-01
8.751649999999999707e-01
8.662999999999999590e-01
8.566300000000000026e-01
8.461539999999999617e-01
8.622710000000000097e-01
8.832229999999999803e-01
8.928939999999999655e-01
8.937000000000000499e-01
8.993409999999999460e-01
8.937000000000000499e-01
8.872529999999999584e-01
8.912820000000000187e-01
8.832229999999999803e-01
8.800000000000000044e-01
8.816119999999999512e-01
8.800000000000000044e-01
8.888639999999999874e-01
8.824180000000000357e-01
8.856410000000000116e-01
8.800000000000000044e-01
8.808059999999999778e-01
8.759710000000000552e-01
8.808059999999999778e-01
8.832229999999999803e-01
8.872529999999999584e-01
8.582419999999999494e-01
8.235900000000000443e-01
8.115019999999999456e-01
7.986079999999999846e-01
8.018319999999999892e-01
8.453479999999999883e-01
8.977289999999999992e-01
9.243219999999999770e-01
9.267400000000000082e-01
9.275459999999999816e-01
9.138460000000000472e-01
9.162639999999999674e-01
9.170700000000000518e-01
9.098169999999999868e-01
9.098169999999999868e-01
9.065929999999999822e-01
9.025640000000000329e-01
8.912820000000000187e-01
8.977289999999999992e-01
8.945049999999999946e-01
8.912820000000000187e-01
8.945049999999999946e-01
8.791940000000000310e-01
8.872529999999999584e-01
8.920879999999999921e-01
8.912820000000000187e-01
8.880590000000000428e-01
8.880590000000000428e-01
8.920879999999999921e-01
8.864469999999999850e-01
8.920879999999999921e-01
8.896699999999999608e-01
8.800000000000000044e-01
8.832229999999999803e-01
8.816119999999999512e-01
8.743589999999999973e-01
8.767770000000000286e-01
8.735530000000000239e-01
8.767770000000000286e-01
8.767770000000000286e-01
8.751649999999999707e-01
8.695239999999999636e-01
8.703300000000000480e-01
8.775819999999999732e-01
8.695239999999999636e-01
8.727470000000000505e-01
8.735530000000000239e-01
8.703300000000000480e-01
8.671060000000000434e-01
8.654950000000000143e-01
8.614650000000000363e-01
8.671060000000000434e-01
8.590480000000000338e-01
8.582419999999999494e-01
8.646890000000000409e-01
8.654950000000000143e-01
8.630769999999999831e-01
8.582419999999999494e-01
8.614650000000000363e-01
8.582419999999999494e-01
8.622710000000000097e-01
8.590480000000000338e-01
8.598529999999999784e-01
8.566300000000000026e-01
8.574359999999999760e-01
8.582419999999999494e-01
8.598529999999999784e-01
8.550179999999999447e-01
8.614650000000000363e-01
8.590480000000000338e-01
8.622710000000000097e-01
8.622710000000000097e-01
8.550179999999999447e-01
8.695239999999999636e-01
8.671060000000000434e-01
8.614650000000000363e-01
8.598529999999999784e-01
8.590480000000000338e-01
8.630769999999999831e-01
8.550179999999999447e-01
8.606589999999999518e-01
8.614650000000000363e-01
8.614650000000000363e-01
8.550179999999999447e-01
8.654950000000000143e-01
8.574359999999999760e-01
8.606589999999999518e-01
8.542119999999999713e-01
8.526010000000000533e-01
8.614650000000000363e-01
8.558240000000000292e-01
8.534070000000000267e-01
8.590480000000000338e-01
8.542119999999999713e-01
8.574359999999999760e-01
8.550179999999999447e-01
8.630769999999999831e-01
8.574359999999999760e-01
8.534070000000000267e-01
8.574359999999999760e-01
8.574359999999999760e-01
8.566300000000000026e-01
8.598529999999999784e-01
8.542119999999999713e-01
8.590480000000000338e-01
8.550179999999999447e-01
8.590480000000000338e-01
8.662999999999999590e-01
8.558240000000000292e-01
8.711360000000000214e-01
8.638829999999999565e-01
8.606589999999999518e-01
8.638829999999999565e-01
8.622710000000000097e-01
8.550179999999999447e-01
8.598529999999999784e-01
8.598529999999999784e-01
8.622710000000000097e-01
8.622710000000000097e-01
8.638829999999999565e-01
8.662999999999999590e-01
8.703300000000000480e-01
8.679120000000000168e-01
8.598529999999999784e-01
8.654950000000000143e-01
8.646890000000000409e-01
8.574359999999999760e-01
8.558240000000000292e-01
8.542119999999999713e-01
8.582419999999999494e-01
8.638829999999999565e-01
8.703300000000000480e-01
8.646890000000000409e-01
8.558240000000000292e-01
8.614650000000000363e-01
8.614650000000000363e-01
8.638829999999999565e-01
8.687179999999999902e-01
8.695239999999999636e-01
8.654950000000000143e-01
8.638829999999999565e-01
8.646890000000000409e-01
8.622710000000000097e-01
8.614650000000000363e-01
8.679120000000000168e-01
8.622710000000000097e-01
8.638829999999999565e-01
8.614650000000000363e-01
8.582419999999999494e-01
8.614650000000000363e-01
8.630769999999999831e-01
8.606589999999999518e-01
8.598529999999999784e-01
8.566300000000000026e-01
8.590480000000000338e-01
8.550179999999999447e-01
8.590480000000000338e-01
8.437360000000000415e-01
8.485709999999999642e-01
8.550179999999999447e-01
8.550179999999999447e-01
8.574359999999999760e-01
8.534070000000000267e-01
8.517949999999999688e-01
8.566300000000000026e-01
8.558240000000000292e-01
8.517949999999999688e-01
8.550179999999999447e-01
8.590480000000000338e-01
8.566300000000000026e-01
8.598529999999999784e-01
8.517949999999999688e-01
8.630769999999999831e-01
8.574359999999999760e-01
8.654950000000000143e-01
8.654950000000000143e-01
8.630769999999999831e-01
8.671060000000000434e-01
8.791940000000000310e-01
8.824180000000000357e-01
8.840289999999999537e-01
8.832229999999999803e-01
8.945049999999999946e-01
8.977289999999999992e-01
9.033700000000000063e-01
9.057880000000000376e-01
9.243219999999999770e-01
9.251279999999999504e-01
9.130399999999999627e-01
8.912820000000000187e-01
8.598529999999999784e-01
8.493770000000000486e-01
8.526010000000000533e-01
8.300370000000000248e-01
8.300370000000000248e-01
8.364840000000000053e-01
8.324540000000000273e-01
8.252009999999999623e-01
8.252009999999999623e-01
8.252009999999999623e-01
8.348719999999999475e-01
8.421250000000000124e-01
8.364840000000000053e-01
8.461539999999999617e-01
8.477660000000000196e-01
8.372889999999999500e-01
8.445420000000000149e-01
8.582419999999999494e-01
8.582419999999999494e-01
8.405129999999999546e-01
8.534070000000000267e-01
8.614650000000000363e-01
8.630769999999999831e-01
8.622710000000000097e-01
8.582419999999999494e-01
8.638829999999999565e-01
8.590480000000000338e-01
8.671060000000000434e-01
8.638829999999999565e-01
8.558240000000000292e-01
8.550179999999999447e-01
8.630769999999999831e-01
8.719409999999999661e-01
8.679120000000000168e-01
8.622710000000000097e-01
8.582419999999999494e-01
8.630769999999999831e-01
8.671060000000000434e-01
8.622710000000000097e-01
8.622710000000000097e-01
8.654950000000000143e-01
8.590480000000000338e-01
8.630769999999999831e-01
8.582419999999999494e-01
8.662999999999999590e-01
8.687179999999999902e-01
8.679120000000000168e-01
8.703300000000000480e-01
8.566300000000000026e-01
8.590480000000000338e-01
8.695239999999999636e-01
8.646890000000000409e-01
8.646890000000000409e-01
8.671060000000000434e-01
8.800000000000000044e-01
8.743589999999999973e-01
8.703300000000000480e-01
8.671060000000000434e-01
8.662999999999999590e-01
8.606589999999999518e-01
8.614650000000000363e-01
8.638829999999999565e-01
8.687179999999999902e-01
8.646890000000000409e-01
8.614650000000000363e-01
8.646890000000000409e-01
8.703300000000000480e-01
8.695239999999999636e-01
8.606589999999999518e-01
8.719409999999999661e-01
8.711360000000000214e-01
8.614650000000000363e-01
8.671060000000000434e-01
8.703300000000000480e-01
8.751649999999999707e-01
8.872529999999999584e-01
8.872529999999999584e-01
8.735530000000000239e-01
8.816119999999999512e-01
8.880590000000000428e-01
8.735530000000000239e-01
8.767770000000000286e-01
8.791940000000000310e-01
8.735530000000000239e-01
8.735530000000000239e-01
8.614650000000000363e-01
8.751649999999999707e-01
8.775819999999999732e-01
8.727470000000000505e-01
8.711360000000000214e-01
8.743589999999999973e-01
8.703300000000000480e-01
8.816119999999999512e-01
8.743589999999999973e-01
8.743589999999999973e-01
8.735530000000000239e-01
8.719409999999999661e-01
8.679120000000000168e-01
8.703300000000000480e-01
8.662999999999999590e-01
8.671060000000000434e-01
8.646890000000000409e-01
8.582419999999999494e-01
8.735530000000000239e-01
8.679120000000000168e-01
8.727470000000000505e-01
8.622710000000000097e-01
8.614650000000000363e-01
8.582419999999999494e-01
8.614650000000000363e-01
8.582419999999999494e-01
8.526010000000000533e-01
8.622710000000000097e-01
8.687179999999999902e-01
8.622710000000000097e-01
8.630769999999999831e-01
8.590480000000000338e-01
8.509889999999999954e-01
8.534070000000000267e-01
8.534070000000000267e-01
8.429299999999999571e-01
8.453479999999999883e-01
8.421250000000000124e-01
8.461539999999999617e-01
8.654950000000000143e-01
8.695239999999999636e-01
8.671060000000000434e-01
8.671060000000000434e-01
8.646890000000000409e-01
8.679120000000000168e-01
8.711360000000000214e-01
8.671060000000000434e-01
8.630769999999999831e-01
8.687179999999999902e-01
8.614650000000000363e-01
8.590480000000000338e-01
8.646890000000000409e-01
8.679120000000000168e-01
8.679120000000000168e-01
8.622710000000000097e-01
8.405129999999999546e-01
8.622710000000000097e-01
8.542119999999999713e-01
8.445420000000000149e-01
8.550179999999999447e-01
8.542119999999999713e-01
8.622710000000000097e-01
8.630769999999999831e-01
8.662999999999999590e-01
8.646890000000000409e-01
8.767770000000000286e-01
8.727470000000000505e-01
8.783879999999999466e-01
8.687179999999999902e-01
8.542119999999999713e-01
8.421250000000000124e-01
8.389010000000000078e-01
8.405129999999999546e-01
8.429299999999999571e-01
8.364840000000000053e-01
8.485709999999999642e-01
8.622710000000000097e-01
8.848350000000000382e-01
8.896699999999999608e-01
8.767770000000000286e-01
8.735530000000000239e-01
8.679120000000000168e-01
8.558240000000000292e-01
8.493770000000000486e-01
8.413190000000000390e-01
8.590480000000000338e-01
8.614650000000000363e-01
8.574359999999999760e-01
8.517949999999999688e-01
8.542119999999999713e-01
8.590480000000000338e-01
8.759710000000000552e-01
8.687179999999999902e-01
8.679120000000000168e-01
8.687179999999999902e-01
8.517949999999999688e-01
8.622710000000000097e-01
8.574359999999999760e-01
8.598529999999999784e-01
8.614650000000000363e-01
8.832229999999999803e-01
8.880590000000000428e-01
8.824180000000000357e-01
8.808059999999999778e-01
8.896699999999999608e-01
8.945049999999999946e-01
8.888639999999999874e-01
8.727470000000000505e-01
8.622710000000000097e-01
8.453479999999999883e-01
8.469600000000000461e-01
8.445420000000000149e-01
8.348719999999999475e-01
8.429299999999999571e-01
8.461539999999999617e-01
8.517949999999999688e-01
8.389010000000000078e-01
8.356780000000000319e-01
8.389010000000000078e-01
8.348719999999999475e-01
8.348719999999999475e-01
8.389010000000000078e-01
8.405129999999999546e-01
8.501830000000000220e-01
8.727470000000000505e-01
8.928939999999999655e-01
8.985349999999999726e-01
8.800000000000000044e-01
8.614650000000000363e-01
8.324540000000000273e-01
8.405129999999999546e-01
8.324540000000000273e-01
8.292310000000000514e-01
8.413190000000000390e-01
8.509889999999999954e-01
8.606589999999999518e-01
8.671060000000000434e-01
8.832229999999999803e-01
8.888639999999999874e-01
8.630769999999999831e-01
8.485709999999999642e-01
8.340659999999999741e-01
8.348719999999999475e-01
8.437360000000000415e-01
8.630769999999999831e-01
8.783879999999999466e-01
8.888639999999999874e-01
9.162639999999999674e-01
8.937000000000000499e-01
8.711360000000000214e-01
8.509889999999999954e-01
8.243960000000000177e-01
7.961899999999999533e-01
7.945790000000000353e-01
7.929669999999999774e-01
7.760439999999999561e-01
7.744320000000000093e-01
7.865199999999999969e-01
8.131140000000000034e-01
8.534070000000000267e-01
9.122339999999999893e-01
9.130399999999999627e-01
9.210990000000000011e-01
8.985349999999999726e-01
8.727470000000000505e-01
8.582419999999999494e-01
8.703300000000000480e-01
9.057880000000000376e-01
9.396339999999999693e-01
9.436630000000000296e-01
9.315750000000000419e-01
8.953109999999999680e-01
8.679120000000000168e-01
8.380950000000000344e-01
8.235900000000000443e-01
8.219779999999999864e-01
8.171429999999999527e-01
8.058610000000000495e-01
8.171429999999999527e-01
8.292310000000000514e-01
8.219779999999999864e-01
8.082780000000000520e-01
8.300370000000000248e-01
8.405129999999999546e-01
8.461539999999999617e-01
8.574359999999999760e-01
8.558240000000000292e-01
8.485709999999999642e-01
8.582419999999999494e-01
8.534070000000000267e-01
8.582419999999999494e-01
8.630769999999999831e-01
8.526010000000000533e-01
8.356780000000000319e-01
8.372889999999999500e-01
8.808059999999999778e-01
8.767770000000000286e-01
8.542119999999999713e-01
7.978020000000000111e-01
7.671790000000000553e-01
7.881320000000000547e-01
8.042489999999999917e-01
8.654950000000000143e-01
9.283519999999999550e-01
9.170700000000000518e-01
8.582419999999999494e-01
7.832970000000000210e-01
7.808789999999999898e-01
8.002200000000000424e-01
8.654950000000000143e-01
9.122339999999999893e-01
9.219049999999999745e-01
9.001470000000000304e-01
8.888639999999999874e-01
8.937000000000000499e-01
8.711360000000000214e-01
8.864469999999999850e-01
8.856410000000000116e-01
8.977289999999999992e-01
9.001470000000000304e-01
9.009519999999999751e-01
8.904760000000000453e-01
8.928939999999999655e-01
9.114290000000000447e-01
9.251279999999999504e-01
9.219049999999999745e-01
8.856410000000000116e-01
8.743589999999999973e-01
8.324540000000000273e-01
8.445420000000000149e-01
9.525270000000000126e-01
1.054872000000000032e+00
1.059706999999999955e+00
9.775089999999999613e-01
8.485709999999999642e-01
7.268860000000000321e-01
6.777290000000000258e-01
7.172159999999999647e-01
7.679850000000000287e-01
8.082780000000000520e-01
8.743589999999999973e-01
9.106229999999999603e-01
9.178749999999999964e-01
9.452749999999999764e-01
8.550179999999999447e-01
8.195599999999999552e-01
8.292310000000000514e-01
8.389010000000000078e-01
8.856410000000000116e-01
9.090110000000000134e-01
9.106229999999999603e-01
9.106229999999999603e-01
9.033700000000000063e-01
9.057880000000000376e-01
8.896699999999999608e-01
8.856410000000000116e-01
9.130399999999999627e-01
9.243219999999999770e-01
9.347990000000000466e-01
9.138460000000000472e-01
8.356780000000000319e-01
7.889380000000000281e-01
7.881320000000000547e-01
8.203660000000000396e-01
9.154579999999999940e-01
9.815380000000000216e-01
1.011355000000000004e+00
9.895969999999999489e-01
9.154579999999999940e-01
8.501830000000000220e-01
7.019050000000000011e-01
7.244690000000000296e-01
8.856410000000000116e-01
9.630039999999999711e-01
9.904030000000000333e-01
9.235160000000000036e-01
8.284249999999999670e-01
8.292310000000000514e-01
8.719409999999999661e-01
9.734800000000000120e-01
1.021832000000000074e+00
9.734800000000000120e-01
8.920879999999999921e-01
8.719409999999999661e-01
8.590480000000000338e-01
8.574359999999999760e-01
8.654950000000000143e-01
8.695239999999999636e-01
8.622710000000000097e-01
8.509889999999999954e-01
8.912820000000000187e-01
9.468860000000000054e-01
1.003297000000000105e+00
9.831499999999999684e-01
9.702560000000000073e-01
8.816119999999999512e-01
8.477660000000000196e-01
8.074729999999999963e-01
8.526010000000000533e-01
9.879850000000000021e-01
1.090330000000000021e+00
1.000879000000000074e+00
8.437360000000000415e-01
7.083519999999999817e-01
6.293769999999999643e-01
6.358239999999999448e-01
7.526739999999999542e-01
1.067765999999999993e+00
1.193480000000000096e+00
1.112894000000000050e+00
9.557510000000000172e-01
8.767770000000000286e-01
8.888639999999999874e-01
1.000072999999999990e+00
1.134651999999999994e+00
1.066154000000000046e+00
9.428569999999999451e-01
7.655680000000000263e-01
7.405859999999999665e-01
8.268130000000000202e-01
9.573629999999999640e-01
9.887909999999999755e-01
9.597799999999999665e-01
9.879850000000000021e-01
9.646150000000000002e-01
8.775819999999999732e-01
8.896699999999999608e-01
8.872529999999999584e-01
8.872529999999999584e-01
8.832229999999999803e-01
9.791210000000000191e-01
1.000879000000000074e+00
8.179490000000000371e-01
7.196339999999999959e-01
7.663739999999999997e-01
9.718679999999999541e-01
1.260366000000000097e+00
1.259560000000000013e+00
1.162857000000000030e+00
1.120147000000000004e+00
9.549450000000000438e-01
6.930399999999999894e-01
7.695969999999999756e-01
9.976559999999999873e-01
1.273260000000000058e+00
1.460220000000000073e+00
1.403810000000000002e+00
9.847620000000000262e-01
5.544320000000000359e-01
4.198529999999999762e-01
5.874730000000000230e-01
7.873259999999999703e-01
9.517219999999999569e-01
1.047619000000000078e+00
1.166886000000000090e+00
1.291795000000000027e+00
1.423149999999999915e+00
1.281319000000000097e+00
9.162639999999999674e-01
6.986809999999999965e-01
7.147989999999999622e-01
5.616849999999999898e-01
5.407330000000000192e-01
9.178749999999999964e-01
1.382050999999999918e+00
1.514211999999999891e+00
1.323223000000000038e+00
1.045201000000000047e+00
8.517949999999999688e-01
6.172889999999999766e-01
5.963370000000000060e-01
6.374360000000000026e-01
8.042489999999999917e-01
9.412449999999999983e-01
8.582419999999999494e-01
8.574359999999999760e-01
8.252009999999999623e-01
8.662999999999999590e-01
1.005713999999999997e+00
1.129010999999999987e+00
1.067765999999999993e+00
8.654950000000000143e-01
9.001470000000000304e-01
1.253114000000000061e+00
1.581099000000000032e+00
1.404614999999999947e+00
9.541389999999999594e-01
7.486450000000000049e-01
6.962639999999999940e-01
9.710619999999999807e-01
1.109669999999999934e+00
1.098387999999999920e+00
8.985349999999999726e-01
9.952379999999999560e-01
1.207985000000000086e+00
1.025055000000000049e+00
8.074729999999999963e-01
7.059339999999999504e-01
5.592669999999999586e-01
5.415379999999999638e-01
6.003659999999999553e-01
7.478390000000000315e-01
1.169303999999999899e+00
1.476337000000000010e+00
1.678608000000000100e+00
1.511795000000000000e+00
1.283735999999999988e+00
9.468860000000000054e-01
6.326009999999999689e-01
4.383879999999999999e-01
5.898900000000000254e-01
8.840289999999999537e-01
1.276483999999999952e+00
1.240220000000000100e+00
1.053260000000000085e+00
8.953109999999999680e-01
8.622710000000000097e-01
9.372160000000000490e-01
1.206374000000000057e+00
1.004102999999999968e+00
8.340659999999999741e-01
6.761169999999999680e-01
7.647620000000000529e-01
1.050842000000000054e+00
1.311941000000000024e+00
1.521465000000000067e+00
1.514211999999999891e+00
1.283735999999999988e+00
8.759710000000000552e-01
7.067400000000000349e-01
7.156040000000000179e-01
7.720150000000000068e-01
9.887909999999999755e-01
1.173332999999999959e+00
8.203660000000000396e-01
6.084249999999999936e-01
7.349449999999999594e-01
1.094359000000000082e+00
1.169303999999999899e+00
1.141099000000000085e+00
1.156409999999999938e+00
1.007325999999999944e+00
9.347990000000000466e-01
9.033700000000000063e-01
7.841029999999999944e-01
8.018319999999999892e-01
9.186809999999999699e-01
1.246666999999999970e+00
1.332894000000000023e+00
1.320805999999999925e+00
1.234579000000000093e+00
1.063736000000000015e+00
9.944319999999999826e-01
9.307689999999999575e-01
8.687179999999999902e-01
8.211720000000000130e-01
7.704029999999999490e-01
7.655680000000000263e-01
8.864469999999999850e-01
1.061318999999999901e+00
1.131429000000000018e+00
8.775819999999999732e-01
8.662999999999999590e-01
9.364099999999999646e-01
1.106446999999999958e+00
1.149157999999999902e+00
1.040365999999999902e+00
1.003297000000000105e+00
9.863739999999999730e-01
1.019414000000000042e+00
1.040365999999999902e+00
1.068570999999999938e+00
1.050037000000000109e+00
1.006520000000000081e+00
8.856410000000000116e-01
8.469600000000000461e-01
9.573629999999999640e-01
1.074211999999999945e+00
1.108058999999999905e+00
1.065347999999999962e+00
1.027473000000000081e+00
1.004102999999999968e+00
1.006520000000000081e+00
9.992670000000000163e-01
9.952379999999999560e-01
9.920149999999999801e-01
9.976559999999999873e-01
9.984619999999999607e-01
1.006520000000000081e+00
9.863739999999999730e-01
9.734800000000000120e-01
9.936260000000000092e-01
1.007325999999999944e+00
9.968500000000000139e-01
9.928209999999999535e-01
9.887909999999999755e-01
9.807329999999999659e-01
9.638099999999999445e-01
9.686449999999999783e-01
9.920149999999999801e-01
1.017802000000000096e+00
1.004102999999999968e+00
9.968500000000000139e-01
9.920149999999999801e-01
9.767029999999999879e-01
9.646150000000000002e-01
9.630039999999999711e-01
9.758970000000000145e-01
1.008132000000000028e+00
1.015384999999999982e+00
1.019414000000000042e+00
9.992670000000000163e-01
1.000072999999999990e+00
1.003297000000000105e+00
9.928209999999999535e-01
9.847620000000000262e-01
9.847620000000000262e-01
9.726740000000000386e-01
9.791210000000000191e-01
9.791210000000000191e-01
9.750919999999999588e-01
9.799269999999999925e-01
9.775089999999999613e-01
9.807329999999999659e-01
9.807329999999999659e-01
9.758970000000000145e-01
9.831499999999999684e-01
9.758970000000000145e-01
9.702560000000000073e-01
9.710619999999999807e-01
9.799269999999999925e-01
9.597799999999999665e-01
9.638099999999999445e-01
9.670330000000000314e-01
9.686449999999999783e-01
9.605860000000000509e-01
9.613920000000000243e-01
9.654209999999999736e-01
9.638099999999999445e-01
9.613920000000000243e-01
9.541389999999999594e-01
9.525270000000000126e-01
9.484979999999999523e-01
9.646150000000000002e-01
9.621979999999999977e-01
9.533329999999999860e-01
9.484979999999999523e-01
9.509159999999999835e-01
9.525270000000000126e-01
9.444690000000000030e-01
9.396339999999999693e-01
9.428569999999999451e-01
9.404400000000000537e-01
9.452749999999999764e-01
9.452749999999999764e-01
9.436630000000000296e-01
9.364099999999999646e-01
9.339929999999999621e-01
9.347990000000000466e-01
9.388279999999999959e-01
9.323810000000000153e-01
9.251279999999999504e-01
9.251279999999999504e-01
9.251279999999999504e-01
9.243219999999999770e-01
9.146520000000000206e-01
9.235160000000000036e-01
9.130399999999999627e-01
9.122339999999999893e-01
9.275459999999999816e-01
9.243219999999999770e-01
9.323810000000000153e-01
9.202930000000000277e-01
9.186809999999999699e-01
9.098169999999999868e-01
9.114290000000000447e-01
9.146520000000000206e-01
9.146520000000000206e-01
9.122339999999999893e-01
9.098169999999999868e-01
9.001470000000000304e-01
8.977289999999999992e-01
8.969230000000000258e-01
8.985349999999999726e-01
9.001470000000000304e-01
8.993409999999999460e-01
8.985349999999999726e-01
8.969230000000000258e-01
8.896699999999999608e-01
8.953109999999999680e-01
9.017579999999999485e-01
9.017579999999999485e-01
8.953109999999999680e-01
8.920879999999999921e-01
8.880590000000000428e-01
8.880590000000000428e-01
8.856410000000000116e-01
8.840289999999999537e-01
8.872529999999999584e-01
8.872529999999999584e-01
8.856410000000000116e-01
8.840289999999999537e-01
8.816119999999999512e-01
8.816119999999999512e-01
8.912820000000000187e-01
8.751649999999999707e-01
8.791940000000000310e-01
8.775819999999999732e-01
8.856410000000000116e-01
8.945049999999999946e-01
8.840289999999999537e-01
8.775819999999999732e-01
8.775819999999999732e-01
8.832229999999999803e-01
8.711360000000000214e-01
8.759710000000000552e-01
8.703300000000000480e-01
8.775819999999999732e-01
8.743589999999999973e-01
8.808059999999999778e-01
8.816119999999999512e-01
8.783879999999999466e-01
8.791940000000000310e-01
8.735530000000000239e-01
8.727470000000000505e-01
8.671060000000000434e-01
8.590480000000000338e-01
8.671060000000000434e-01
8.751649999999999707e-01
8.743589999999999973e-01
8.775819999999999732e-01
8.719409999999999661e-01
8.727470000000000505e-01
8.638829999999999565e-01
8.598529999999999784e-01
8.671060000000000434e-01
8.630769999999999831e-01
8.654950000000000143e-01
8.590480000000000338e-01
8.574359999999999760e-01
8.598529999999999784e-01
8.542119999999999713e-01
8.437360000000000415e-01
8.445420000000000149e-01
8.461539999999999617e-01
8.662999999999999590e-01
8.775819999999999732e-01
8.775819999999999732e-01
8.719409999999999661e-01
8.816119999999999512e-01
8.606589999999999518e-01
8.517949999999999688e-01
8.574359999999999760e-01
8.687179999999999902e-01
8.630769999999999831e-01
8.646890000000000409e-01
8.566300000000000026e-01
8.558240000000000292e-01
8.534070000000000267e-01
8.517949999999999688e-01
8.590480000000000338e-01
8.646890000000000409e-01
8.542119999999999713e-01
8.542119999999999713e-01
8.493770000000000486e-01
8.638829999999999565e-01
8.630769999999999831e-01
8.703300000000000480e-01
8.735530000000000239e-01
8.800000000000000044e-01
8.945049999999999946e-01
8.953109999999999680e-01
8.920879999999999921e-01
8.953109999999999680e-01
9.098169999999999868e-01
8.880590000000000428e-01
8.824180000000000357e-01
8.646890000000000409e-01
8.485709999999999642e-01
8.445420000000000149e-01
8.445420000000000149e-01
8.421250000000000124e-01
8.437360000000000415e-01
8.356780000000000319e-01
8.389010000000000078e-01
8.211720000000000130e-01
8.115019999999999456e-01
8.171429999999999527e-01
8.195599999999999552e-01
8.187550000000000106e-01
8.389010000000000078e-01
8.356780000000000319e-01
8.284249999999999670e-01
8.179490000000000371e-01
8.227839999999999598e-01
8.477660000000000196e-01
8.509889999999999954e-01
8.461539999999999617e-01
8.469600000000000461e-01
8.421250000000000124e-01
8.453479999999999883e-01
8.421250000000000124e-01
8.558240000000000292e-01
8.526010000000000533e-01
8.574359999999999760e-01
8.606589999999999518e-01
8.534070000000000267e-01
8.542119999999999713e-01
8.590480000000000338e-01
8.574359999999999760e-01
8.622710000000000097e-01
8.509889999999999954e-01
8.469600000000000461e-01
8.493770000000000486e-01
8.542119999999999713e-01
8.509889999999999954e-01
8.485709999999999642e-01
8.501830000000000220e-01
8.574359999999999760e-01
8.501830000000000220e-01
8.469600000000000461e-01
8.469600000000000461e-01
8.429299999999999571e-01
8.558240000000000292e-01
8.477660000000000196e-01
8.469600000000000461e-01
8.550179999999999447e-01
8.405129999999999546e-01
8.501830000000000220e-01
8.517949999999999688e-01
8.485709999999999642e-01
8.517949999999999688e-01
8.509889999999999954e-01
8.598529999999999784e-01
8.534070000000000267e-01
8.550179999999999447e-01
8.477660000000000196e-01
8.550179999999999447e-01
8.574359999999999760e-01
8.606589999999999518e-01
8.566300000000000026e-01
8.590480000000000338e-01
8.550179999999999447e-01
8.574359999999999760e-01
8.614650000000000363e-01
8.638829999999999565e-01
8.566300000000000026e-01
8.574359999999999760e-01
8.550179999999999447e-01
8.638829999999999565e-01
8.550179999999999447e-01
8.614650000000000363e-01
8.614650000000000363e-01
8.598529999999999784e-01
8.622710000000000097e-01
8.638829999999999565e-01
8.598529999999999784e-01
8.598529999999999784e-01
8.590480000000000338e-01
8.638829999999999565e-01
8.614650000000000363e-01
8.606589999999999518e-01
8.622710000000000097e-01
8.590480000000000338e-01
8.582419999999999494e-01
8.566300000000000026e-01
8.598529999999999784e-01
8.622710000000000097e-01
8.606589999999999518e-01
8.630769999999999831e-01
8.671060000000000434e-01
8.558240000000000292e-01
8.550179999999999447e-01
8.598529999999999784e-01
8.517949999999999688e-01
8.614650000000000363e-01
8.582419999999999494e-01
8.598529999999999784e-01
8.509889999999999954e-01
8.493770000000000486e-01
8.517949999999999688e-01
8.509889999999999954e-01
8.461539999999999617e-01
8.437360000000000415e-01
8.501830000000000220e-01
8.461539999999999617e-01
8.485709999999999642e-01
8.517949999999999688e-01
8.509889999999999954e-01
8.485709999999999642e-01
8.429299999999999571e-01
8.445420000000000149e-01
8.429299999999999571e-01
8.477660000000000196e-01
8.421250000000000124e-01
8.389010000000000078e-01
8.308419999999999694e-01
8.332600000000000007e-01
8.356780000000000319e-01
8.389010000000000078e-01
8.429299999999999571e-01
8.501830000000000220e-01
8.421250000000000124e-01
8.437360000000000415e-01
8.437360000000000415e-01
8.413190000000000390e-01
8.405129999999999546e-01
8.372889999999999500e-01
8.372889999999999500e-01
8.453479999999999883e-01
8.517949999999999688e-01
8.429299999999999571e-01
8.445420000000000149e-01
8.348719999999999475e-01
8.405129999999999546e-01
8.405129999999999546e-01
8.397069999999999812e-01
8.421250000000000124e-01
8.485709999999999642e-01
8.501830000000000220e-01
8.461539999999999617e-01
8.469600000000000461e-01
8.534070000000000267e-01
8.405129999999999546e-01
8.493770000000000486e-01
8.517949999999999688e-01
8.469600000000000461e-01
8.461539999999999617e-01
8.469600000000000461e-01
8.501830000000000220e-01
8.509889999999999954e-01
8.485709999999999642e-01
8.526010000000000533e-01
8.477660000000000196e-01
8.453479999999999883e-01
8.461539999999999617e-01
8.614650000000000363e-01
8.534070000000000267e-01
8.477660000000000196e-01
8.534070000000000267e-01
8.509889999999999954e-01
8.574359999999999760e-01
8.509889999999999954e-01
8.453479999999999883e-01
8.469600000000000461e-01
8.477660000000000196e-01
8.550179999999999447e-01
8.501830000000000220e-01
8.493770000000000486e-01
8.501830000000000220e-01
8.526010000000000533e-01
8.534070000000000267e-01
8.534070000000000267e-01
8.517949999999999688e-01
8.485709999999999642e-01
8.485709999999999642e-01
8.582419999999999494e-01
8.558240000000000292e-01
8.671060000000000434e-01
8.590480000000000338e-01
8.622710000000000097e-01
8.526010000000000533e-01
8.469600000000000461e-01
8.566300000000000026e-01
8.582419999999999494e-01
8.574359999999999760e-01
8.574359999999999760e-01
8.646890000000000409e-01
8.582419999999999494e-01
8.517949999999999688e-01
8.550179999999999447e-01
8.477660000000000196e-01
8.517949999999999688e-01
8.534070000000000267e-01
8.517949999999999688e-01
8.501830000000000220e-01
8.501830000000000220e-01
8.550179999999999447e-01
8.566300000000000026e-01
8.606589999999999518e-01
8.558240000000000292e-01
8.493770000000000486e-01
8.542119999999999713e-01
8.477660000000000196e-01
8.614650000000000363e-01
8.542119999999999713e-01
8.493770000000000486e-01
8.517949999999999688e-01
8.453479999999999883e-01
8.574359999999999760e-01
8.534070000000000267e-01
8.558240000000000292e-01
8.542119999999999713e-01
8.453479999999999883e-01
8.550179999999999447e-01
8.550179999999999447e-01
8.534070000000000267e-01
8.316480000000000539e-01
8.493770000000000486e-01
8.526010000000000533e-01
8.574359999999999760e-01
8.550179999999999447e-01
8.485709999999999642e-01
8.477660000000000196e-01
8.469600000000000461e-01
8.517949999999999688e-01
8.526010000000000533e-01
8.534070000000000267e-01
8.566300000000000026e-01
8.582419999999999494e-01
8.517949999999999688e-01
8.534070000000000267e-01
8.526010000000000533e-01
8.517949999999999688e-01
8.598529999999999784e-01
8.526010000000000533e-01
8.630769999999999831e-01
8.662999999999999590e-01
8.711360000000000214e-01
8.848350000000000382e-01
8.848350000000000382e-01
8.937000000000000499e-01
8.969230000000000258e-01
9.049819999999999531e-01
9.114290000000000447e-01
9.162639999999999674e-01
8.993409999999999460e-01
8.856410000000000116e-01
8.445420000000000149e-01
8.437360000000000415e-01
8.356780000000000319e-01
8.332600000000000007e-01
8.316480000000000539e-01
8.227839999999999598e-01
8.252009999999999623e-01
8.219779999999999864e-01
8.243960000000000177e-01
8.211720000000000130e-01
8.252009999999999623e-01
8.316480000000000539e-01
8.364840000000000053e-01
8.316480000000000539e-01
8.421250000000000124e-01
8.453479999999999883e-01
8.429299999999999571e-01
8.469600000000000461e-01
8.501830000000000220e-01
8.526010000000000533e-01
8.574359999999999760e-01
8.517949999999999688e-01
8.526010000000000533e-01
8.566300000000000026e-01
8.509889999999999954e-01
8.526010000000000533e-01
8.493770000000000486e-01
8.550179999999999447e-01
8.517949999999999688e-01
8.445420000000000149e-01
8.574359999999999760e-01
8.558240000000000292e-01
8.534070000000000267e-01
8.558240000000000292e-01
8.534070000000000267e-01
8.598529999999999784e-01
8.590480000000000338e-01
8.526010000000000533e-01
8.574359999999999760e-01
8.574359999999999760e-01
8.590480000000000338e-01
8.574359999999999760e-01
8.598529999999999784e-01
8.598529999999999784e-01
8.558240000000000292e-01
8.574359999999999760e-01
8.558240000000000292e-01
8.598529999999999784e-01
8.614650000000000363e-01
8.574359999999999760e-01
8.598529999999999784e-01
8.574359999999999760e-01
8.501830000000000220e-01
8.550179999999999447e-01
8.574359999999999760e-01
8.566300000000000026e-01
8.614650000000000363e-01
8.654950000000000143e-01
8.630769999999999831e-01
8.638829999999999565e-01
8.662999999999999590e-01
8.671060000000000434e-01
8.671060000000000434e-01
8.703300000000000480e-01
8.622710000000000097e-01
8.574359999999999760e-01
8.558240000000000292e-01
8.509889999999999954e-01
8.469600000000000461e-01
8.453479999999999883e-01
8.461539999999999617e-01
8.534070000000000267e-01
8.646890000000000409e-01
8.775819999999999732e-01
8.767770000000000286e-01
8.735530000000000239e-01
8.743589999999999973e-01
8.687179999999999902e-01
8.695239999999999636e-01
8.687179999999999902e-01
8.671060000000000434e-01
8.791940000000000310e-01
8.767770000000000286e-01
8.840289999999999537e-01
8.816119999999999512e-01
8.832229999999999803e-01
8.735530000000000239e-01
8.606589999999999518e-01
8.646890000000000409e-01
8.598529999999999784e-01
8.598529999999999784e-01
8.550179999999999447e-01
8.566300000000000026e-01
8.501830000000000220e-01
8.534070000000000267e-01
8.550179999999999447e-01
8.493770000000000486e-01
8.324540000000000273e-01
8.300370000000000248e-01
8.227839999999999598e-01
8.437360000000000415e-01
8.405129999999999546e-01
8.380950000000000344e-01
8.356780000000000319e-01
8.389010000000000078e-01
8.558240000000000292e-01
8.759710000000000552e-01
8.977289999999999992e-01
9.170700000000000518e-01
9.106229999999999603e-01
9.001470000000000304e-01
9.017579999999999485e-01
8.937000000000000499e-01
9.001470000000000304e-01
8.896699999999999608e-01
8.808059999999999778e-01
8.791940000000000310e-01
8.687179999999999902e-01
8.671060000000000434e-01
8.638829999999999565e-01
8.614650000000000363e-01
8.558240000000000292e-01
8.437360000000000415e-01
8.429299999999999571e-01
8.324540000000000273e-01
8.276189999999999936e-01
8.042489999999999917e-01
8.066670000000000229e-01
8.171429999999999527e-01
8.155310000000000059e-01
8.195599999999999552e-01
8.211720000000000130e-01
8.429299999999999571e-01
8.590480000000000338e-01
8.775819999999999732e-01
8.912820000000000187e-01
8.743589999999999973e-01
8.743589999999999973e-01
8.783879999999999466e-01
8.840289999999999537e-01
8.856410000000000116e-01
8.937000000000000499e-01
8.912820000000000187e-01
8.985349999999999726e-01
8.832229999999999803e-01
8.671060000000000434e-01
