8.800000000000000044e-01
8.791940000000000310e-01
8.775819999999999732e-01
8.759710000000000552e-01
8.767770000000000286e-01
8.775819999999999732e-01
8.767770000000000286e-01
8.743589999999999973e-01
8.759710000000000552e-01
8.759710000000000552e-01
8.783879999999999466e-01
8.775819999999999732e-01
8.759710000000000552e-01
8.735530000000000239e-01
8.775819999999999732e-01
8.759710000000000552e-01
8.751649999999999707e-01
8.759710000000000552e-01
8.767770000000000286e-01
8.703300000000000480e-01
8.735530000000000239e-01
8.727470000000000505e-01
8.727470000000000505e-01
8.759710000000000552e-01
8.727470000000000505e-01
8.719409999999999661e-01
8.719409999999999661e-01
8.751649999999999707e-01
8.719409999999999661e-01
8.735530000000000239e-01
8.735530000000000239e-01
8.743589999999999973e-01
8.711360000000000214e-01
8.711360000000000214e-01
8.679120000000000168e-01
8.662999999999999590e-01
8.638829999999999565e-01
8.671060000000000434e-01
8.735530000000000239e-01
8.775819999999999732e-01
8.977289999999999992e-01
9.170700000000000518e-01
9.331869999999999887e-01
9.468860000000000054e-01
9.581680000000000197e-01
9.718679999999999541e-01
9.847620000000000262e-01
9.887909999999999755e-01
9.597799999999999665e-01
9.138460000000000472e-01
8.614650000000000363e-01
8.469600000000000461e-01
8.292310000000000514e-01
8.235900000000000443e-01
8.195599999999999552e-01
8.195599999999999552e-01
8.300370000000000248e-01
8.372889999999999500e-01
8.405129999999999546e-01
8.493770000000000486e-01
8.517949999999999688e-01
8.654950000000000143e-01
8.606589999999999518e-01
8.662999999999999590e-01
8.679120000000000168e-01
8.759710000000000552e-01
8.832229999999999803e-01
8.848350000000000382e-01
8.856410000000000116e-01
8.864469999999999850e-01
8.840289999999999537e-01
8.864469999999999850e-01
8.848350000000000382e-01
8.880590000000000428e-01
8.872529999999999584e-01
8.864469999999999850e-01
8.840289999999999537e-01
8.864469999999999850e-01
8.880590000000000428e-01
8.864469999999999850e-01
8.904760000000000453e-01
8.904760000000000453e-01
8.928939999999999655e-01
8.888639999999999874e-01
8.896699999999999608e-01
8.920879999999999921e-01
8.953109999999999680e-01
8.961170000000000524e-01
8.953109999999999680e-01
8.920879999999999921e-01
8.953109999999999680e-01
8.937000000000000499e-01
9.041759999999999797e-01
8.953109999999999680e-01
8.961170000000000524e-01
8.985349999999999726e-01
9.009519999999999751e-01
8.961170000000000524e-01
8.985349999999999726e-01
9.009519999999999751e-01
9.017579999999999485e-01
8.985349999999999726e-01
9.017579999999999485e-01
9.025640000000000329e-01
9.017579999999999485e-01
9.049819999999999531e-01
9.065929999999999822e-01
9.073989999999999556e-01
9.057880000000000376e-01
9.090110000000000134e-01
9.098169999999999868e-01
9.098169999999999868e-01
9.114290000000000447e-01
9.106229999999999603e-01
9.130399999999999627e-01
9.122339999999999893e-01
9.162639999999999674e-01
9.162639999999999674e-01
9.178749999999999964e-01
9.194870000000000543e-01
9.186809999999999699e-01
9.227109999999999479e-01
9.219049999999999745e-01
9.235160000000000036e-01
9.243219999999999770e-01
9.283519999999999550e-01
9.283519999999999550e-01
9.315750000000000419e-01
9.291580000000000394e-01
9.331869999999999887e-01
9.356039999999999912e-01
9.323810000000000153e-01
9.356039999999999912e-01
9.364099999999999646e-01
9.380220000000000224e-01
9.380220000000000224e-01
9.372160000000000490e-01
9.339929999999999621e-01
9.372160000000000490e-01
9.339929999999999621e-01
9.323810000000000153e-01
9.315750000000000419e-01
9.275459999999999816e-01
9.283519999999999550e-01
9.259340000000000348e-01
9.202930000000000277e-01
9.219049999999999745e-01
9.202930000000000277e-01
9.170700000000000518e-01
9.114290000000000447e-01
9.098169999999999868e-01
9.057880000000000376e-01
9.025640000000000329e-01
9.009519999999999751e-01
8.993409999999999460e-01
8.928939999999999655e-01
8.937000000000000499e-01
8.904760000000000453e-01
8.896699999999999608e-01
8.864469999999999850e-01
8.848350000000000382e-01
8.840289999999999537e-01
8.832229999999999803e-01
8.832229999999999803e-01
8.767770000000000286e-01
8.767770000000000286e-01
8.775819999999999732e-01
8.735530000000000239e-01
8.791940000000000310e-01
8.759710000000000552e-01
8.751649999999999707e-01
8.751649999999999707e-01
8.703300000000000480e-01
8.751649999999999707e-01
8.751649999999999707e-01
8.735530000000000239e-01
8.727470000000000505e-01
8.743589999999999973e-01
8.743589999999999973e-01
8.743589999999999973e-01
8.727470000000000505e-01
8.735530000000000239e-01
8.695239999999999636e-01
8.719409999999999661e-01
8.880590000000000428e-01
8.759710000000000552e-01
8.759710000000000552e-01
8.735530000000000239e-01
8.735530000000000239e-01
8.751649999999999707e-01
8.727470000000000505e-01
8.727470000000000505e-01
8.767770000000000286e-01
8.719409999999999661e-01
8.743589999999999973e-01
8.727470000000000505e-01
8.767770000000000286e-01
8.759710000000000552e-01
8.735530000000000239e-01
8.791940000000000310e-01
8.727470000000000505e-01
8.727470000000000505e-01
8.743589999999999973e-01
8.767770000000000286e-01
8.735530000000000239e-01
8.727470000000000505e-01
8.735530000000000239e-01
8.751649999999999707e-01
8.767770000000000286e-01
8.767770000000000286e-01
8.759710000000000552e-01
8.775819999999999732e-01
8.743589999999999973e-01
8.735530000000000239e-01
8.751649999999999707e-01
8.743589999999999973e-01
8.727470000000000505e-01
8.767770000000000286e-01
8.727470000000000505e-01
8.727470000000000505e-01
8.783879999999999466e-01
8.759710000000000552e-01
8.751649999999999707e-01
8.735530000000000239e-01
8.727470000000000505e-01
8.800000000000000044e-01
8.775819999999999732e-01
8.791940000000000310e-01
8.791940000000000310e-01
8.816119999999999512e-01
8.775819999999999732e-01
8.759710000000000552e-01
8.832229999999999803e-01
8.767770000000000286e-01
8.791940000000000310e-01
8.808059999999999778e-01
8.791940000000000310e-01
8.767770000000000286e-01
8.791940000000000310e-01
8.711360000000000214e-01
8.759710000000000552e-01
8.767770000000000286e-01
8.791940000000000310e-01
8.759710000000000552e-01
8.727470000000000505e-01
8.791940000000000310e-01
8.775819999999999732e-01
8.775819999999999732e-01
8.767770000000000286e-01
8.775819999999999732e-01
8.767770000000000286e-01
8.767770000000000286e-01
8.751649999999999707e-01
8.775819999999999732e-01
8.783879999999999466e-01
8.791940000000000310e-01
8.759710000000000552e-01
8.775819999999999732e-01
8.759710000000000552e-01
8.791940000000000310e-01
8.800000000000000044e-01
8.759710000000000552e-01
8.816119999999999512e-01
8.767770000000000286e-01
8.759710000000000552e-01
8.775819999999999732e-01
8.759710000000000552e-01
8.727470000000000505e-01
8.775819999999999732e-01
8.735530000000000239e-01
8.566300000000000026e-01
8.816119999999999512e-01
8.775819999999999732e-01
8.759710000000000552e-01
8.751649999999999707e-01
8.743589999999999973e-01
8.775819999999999732e-01
8.743589999999999973e-01
8.767770000000000286e-01
8.759710000000000552e-01
8.743589999999999973e-01
8.703300000000000480e-01
8.783879999999999466e-01
8.767770000000000286e-01
8.767770000000000286e-01
8.751649999999999707e-01
8.783879999999999466e-01
8.735530000000000239e-01
8.767770000000000286e-01
8.759710000000000552e-01
8.751649999999999707e-01
8.775819999999999732e-01
8.743589999999999973e-01
8.743589999999999973e-01
8.743589999999999973e-01
8.735530000000000239e-01
8.775819999999999732e-01
8.767770000000000286e-01
8.735530000000000239e-01
8.767770000000000286e-01
8.735530000000000239e-01
8.759710000000000552e-01
8.751649999999999707e-01
8.751649999999999707e-01
8.711360000000000214e-01
8.775819999999999732e-01
8.743589999999999973e-01
8.711360000000000214e-01
8.759710000000000552e-01
8.751649999999999707e-01
8.743589999999999973e-01
8.767770000000000286e-01
8.775819999999999732e-01
8.727470000000000505e-01
8.759710000000000552e-01
8.759710000000000552e-01
8.767770000000000286e-01
8.775819999999999732e-01
8.791940000000000310e-01
8.767770000000000286e-01
8.783879999999999466e-01
8.775819999999999732e-01
8.800000000000000044e-01
8.791940000000000310e-01
8.783879999999999466e-01
8.767770000000000286e-01
8.832229999999999803e-01
8.840289999999999537e-01
8.791940000000000310e-01
8.840289999999999537e-01
8.800000000000000044e-01
8.872529999999999584e-01
8.920879999999999921e-01
8.888639999999999874e-01
8.832229999999999803e-01
8.896699999999999608e-01
8.872529999999999584e-01
8.832229999999999803e-01
8.848350000000000382e-01
8.848350000000000382e-01
8.856410000000000116e-01
8.808059999999999778e-01
8.800000000000000044e-01
8.824180000000000357e-01
8.800000000000000044e-01
8.783879999999999466e-01
8.824180000000000357e-01
8.727470000000000505e-01
8.767770000000000286e-01
8.759710000000000552e-01
8.759710000000000552e-01
8.735530000000000239e-01
8.687179999999999902e-01
8.743589999999999973e-01
8.727470000000000505e-01
8.767770000000000286e-01
8.735530000000000239e-01
8.775819999999999732e-01
8.751649999999999707e-01
8.783879999999999466e-01
8.808059999999999778e-01
8.767770000000000286e-01
8.767770000000000286e-01
8.671060000000000434e-01
8.743589999999999973e-01
8.727470000000000505e-01
8.735530000000000239e-01
8.759710000000000552e-01
8.767770000000000286e-01
8.735530000000000239e-01
8.743589999999999973e-01
8.759710000000000552e-01
8.727470000000000505e-01
8.719409999999999661e-01
8.719409999999999661e-01
8.759710000000000552e-01
8.695239999999999636e-01
8.727470000000000505e-01
8.727470000000000505e-01
8.743589999999999973e-01
8.864469999999999850e-01
8.727470000000000505e-01
8.711360000000000214e-01
8.743589999999999973e-01
8.703300000000000480e-01
8.598529999999999784e-01
8.703300000000000480e-01
8.767770000000000286e-01
8.904760000000000453e-01
9.073989999999999556e-01
9.243219999999999770e-01
9.380220000000000224e-01
9.517219999999999569e-01
9.686449999999999783e-01
9.791210000000000191e-01
9.904030000000000333e-01
9.815380000000000216e-01
9.412449999999999983e-01
8.904760000000000453e-01
8.662999999999999590e-01
8.397069999999999812e-01
8.235900000000000443e-01
8.131140000000000034e-01
8.171429999999999527e-01
8.252009999999999623e-01
8.268130000000000202e-01
8.356780000000000319e-01
8.453479999999999883e-01
8.501830000000000220e-01
8.517949999999999688e-01
8.534070000000000267e-01
8.614650000000000363e-01
8.622710000000000097e-01
8.671060000000000434e-01
8.759710000000000552e-01
8.791940000000000310e-01
8.808059999999999778e-01
8.840289999999999537e-01
8.791940000000000310e-01
8.832229999999999803e-01
8.864469999999999850e-01
8.856410000000000116e-01
8.840289999999999537e-01
8.832229999999999803e-01
8.896699999999999608e-01
8.711360000000000214e-01
8.864469999999999850e-01
8.904760000000000453e-01
8.888639999999999874e-01
8.904760000000000453e-01
8.904760000000000453e-01
8.928939999999999655e-01
8.937000000000000499e-01
8.912820000000000187e-01
8.920879999999999921e-01
8.953109999999999680e-01
8.961170000000000524e-01
8.953109999999999680e-01
8.920879999999999921e-01
8.937000000000000499e-01
8.961170000000000524e-01
8.945049999999999946e-01
8.896699999999999608e-01
8.953109999999999680e-01
8.961170000000000524e-01
9.033700000000000063e-01
8.977289999999999992e-01
9.009519999999999751e-01
9.017579999999999485e-01
9.017579999999999485e-01
9.025640000000000329e-01
9.049819999999999531e-01
9.073989999999999556e-01
9.025640000000000329e-01
9.049819999999999531e-01
9.082050000000000400e-01
9.033700000000000063e-01
9.033700000000000063e-01
9.098169999999999868e-01
9.033700000000000063e-01
9.098169999999999868e-01
9.114290000000000447e-01
9.154579999999999940e-01
9.130399999999999627e-01
9.154579999999999940e-01
9.178749999999999964e-01
9.178749999999999964e-01
9.186809999999999699e-01
9.219049999999999745e-01
9.235160000000000036e-01
9.235160000000000036e-01
9.251279999999999504e-01
9.259340000000000348e-01
9.259340000000000348e-01
9.267400000000000082e-01
9.291580000000000394e-01
9.380220000000000224e-01
9.307689999999999575e-01
9.339929999999999621e-01
9.347990000000000466e-01
9.291580000000000394e-01
9.356039999999999912e-01
9.380220000000000224e-01
9.428569999999999451e-01
9.347990000000000466e-01
9.291580000000000394e-01
9.364099999999999646e-01
9.364099999999999646e-01
9.331869999999999887e-01
9.364099999999999646e-01
9.364099999999999646e-01
9.315750000000000419e-01
9.267400000000000082e-01
9.202930000000000277e-01
9.219049999999999745e-01
9.186809999999999699e-01
9.138460000000000472e-01
9.106229999999999603e-01
9.090110000000000134e-01
9.033700000000000063e-01
9.025640000000000329e-01
9.001470000000000304e-01
8.961170000000000524e-01
8.969230000000000258e-01
8.937000000000000499e-01
8.953109999999999680e-01
8.904760000000000453e-01
8.880590000000000428e-01
8.856410000000000116e-01
8.880590000000000428e-01
8.856410000000000116e-01
8.848350000000000382e-01
8.824180000000000357e-01
8.816119999999999512e-01
8.775819999999999732e-01
8.775819999999999732e-01
8.800000000000000044e-01
8.727470000000000505e-01
8.767770000000000286e-01
8.751649999999999707e-01
8.743589999999999973e-01
8.743589999999999973e-01
8.735530000000000239e-01
8.743589999999999973e-01
8.727470000000000505e-01
8.735530000000000239e-01
8.727470000000000505e-01
8.743589999999999973e-01
8.743589999999999973e-01
8.719409999999999661e-01
8.767770000000000286e-01
8.775819999999999732e-01
8.711360000000000214e-01
8.711360000000000214e-01
8.727470000000000505e-01
8.703300000000000480e-01
8.719409999999999661e-01
8.719409999999999661e-01
8.735530000000000239e-01
8.767770000000000286e-01
8.727470000000000505e-01
8.711360000000000214e-01
8.767770000000000286e-01
8.800000000000000044e-01
8.759710000000000552e-01
8.751649999999999707e-01
8.711360000000000214e-01
8.759710000000000552e-01
8.727470000000000505e-01
8.711360000000000214e-01
8.727470000000000505e-01
8.767770000000000286e-01
8.735530000000000239e-01
8.703300000000000480e-01
8.832229999999999803e-01
8.759710000000000552e-01
8.783879999999999466e-01
8.856410000000000116e-01
8.743589999999999973e-01
8.759710000000000552e-01
8.759710000000000552e-01
8.743589999999999973e-01
8.800000000000000044e-01
8.791940000000000310e-01
8.767770000000000286e-01
8.719409999999999661e-01
8.703300000000000480e-01
8.767770000000000286e-01
8.751649999999999707e-01
8.743589999999999973e-01
8.759710000000000552e-01
8.743589999999999973e-01
8.767770000000000286e-01
8.775819999999999732e-01
8.767770000000000286e-01
8.767770000000000286e-01
8.783879999999999466e-01
8.751649999999999707e-01
8.816119999999999512e-01
8.775819999999999732e-01
8.767770000000000286e-01
8.783879999999999466e-01
8.759710000000000552e-01
8.767770000000000286e-01
8.759710000000000552e-01
8.783879999999999466e-01
8.824180000000000357e-01
8.800000000000000044e-01
8.791940000000000310e-01
8.791940000000000310e-01
8.791940000000000310e-01
8.800000000000000044e-01
8.775819999999999732e-01
8.767770000000000286e-01
8.767770000000000286e-01
8.800000000000000044e-01
8.800000000000000044e-01
8.808059999999999778e-01
8.791940000000000310e-01
8.808059999999999778e-01
8.783879999999999466e-01
8.783879999999999466e-01
8.791940000000000310e-01
8.808059999999999778e-01
8.767770000000000286e-01
8.791940000000000310e-01
8.751649999999999707e-01
8.767770000000000286e-01
8.743589999999999973e-01
8.800000000000000044e-01
8.800000000000000044e-01
8.767770000000000286e-01
8.800000000000000044e-01
8.775819999999999732e-01
8.759710000000000552e-01
8.791940000000000310e-01
8.767770000000000286e-01
8.767770000000000286e-01
8.791940000000000310e-01
8.800000000000000044e-01
8.775819999999999732e-01
8.759710000000000552e-01
8.783879999999999466e-01
8.759710000000000552e-01
8.759710000000000552e-01
8.759710000000000552e-01
8.727470000000000505e-01
8.783879999999999466e-01
8.816119999999999512e-01
8.775819999999999732e-01
8.800000000000000044e-01
8.791940000000000310e-01
8.759710000000000552e-01
8.743589999999999973e-01
8.727470000000000505e-01
8.727470000000000505e-01
8.751649999999999707e-01
8.767770000000000286e-01
8.751649999999999707e-01
8.751649999999999707e-01
8.767770000000000286e-01
8.775819999999999732e-01
8.775819999999999732e-01
8.767770000000000286e-01
8.751649999999999707e-01
8.743589999999999973e-01
8.783879999999999466e-01
8.759710000000000552e-01
8.775819999999999732e-01
8.767770000000000286e-01
8.759710000000000552e-01
8.800000000000000044e-01
8.848350000000000382e-01
8.791940000000000310e-01
8.832229999999999803e-01
8.791940000000000310e-01
8.800000000000000044e-01
8.800000000000000044e-01
8.864469999999999850e-01
8.864469999999999850e-01
8.880590000000000428e-01
8.896699999999999608e-01
8.904760000000000453e-01
8.896699999999999608e-01
8.816119999999999512e-01
8.840289999999999537e-01
8.864469999999999850e-01
8.888639999999999874e-01
8.856410000000000116e-01
8.832229999999999803e-01
8.832229999999999803e-01
8.864469999999999850e-01
8.824180000000000357e-01
8.824180000000000357e-01
8.824180000000000357e-01
8.791940000000000310e-01
8.816119999999999512e-01
8.791940000000000310e-01
8.783879999999999466e-01
8.783879999999999466e-01
8.767770000000000286e-01
8.767770000000000286e-01
8.791940000000000310e-01
8.791940000000000310e-01
8.767770000000000286e-01
8.743589999999999973e-01
8.791940000000000310e-01
8.767770000000000286e-01
8.759710000000000552e-01
8.783879999999999466e-01
8.727470000000000505e-01
8.751649999999999707e-01
8.759710000000000552e-01
8.759710000000000552e-01
8.759710000000000552e-01
8.719409999999999661e-01
8.808059999999999778e-01
8.735530000000000239e-01
8.759710000000000552e-01
8.800000000000000044e-01
8.759710000000000552e-01
8.759710000000000552e-01
8.727470000000000505e-01
8.783879999999999466e-01
8.743589999999999973e-01
8.735530000000000239e-01
8.775819999999999732e-01
8.727470000000000505e-01
8.751649999999999707e-01
8.711360000000000214e-01
8.775819999999999732e-01
8.638829999999999565e-01
8.687179999999999902e-01
8.638829999999999565e-01
8.638829999999999565e-01
8.751649999999999707e-01
8.864469999999999850e-01
9.033700000000000063e-01
8.945049999999999946e-01
9.364099999999999646e-01
9.533329999999999860e-01
9.613920000000000243e-01
9.791210000000000191e-01
9.855679999999999996e-01
9.799269999999999925e-01
9.420509999999999717e-01
8.912820000000000187e-01
8.582419999999999494e-01
8.437360000000000415e-01
8.252009999999999623e-01
8.203660000000000396e-01
8.211720000000000130e-01
8.292310000000000514e-01
8.364840000000000053e-01
8.405129999999999546e-01
8.413190000000000390e-01
8.517949999999999688e-01
8.509889999999999954e-01
8.574359999999999760e-01
8.614650000000000363e-01
8.622710000000000097e-01
8.638829999999999565e-01
8.719409999999999661e-01
8.767770000000000286e-01
8.824180000000000357e-01
8.896699999999999608e-01
8.864469999999999850e-01
8.864469999999999850e-01
8.840289999999999537e-01
8.977289999999999992e-01
8.856410000000000116e-01
8.840289999999999537e-01
8.904760000000000453e-01
8.928939999999999655e-01
8.832229999999999803e-01
8.888639999999999874e-01
8.896699999999999608e-01
8.880590000000000428e-01
8.937000000000000499e-01
8.928939999999999655e-01
8.856410000000000116e-01
8.953109999999999680e-01
8.928939999999999655e-01
8.920879999999999921e-01
8.945049999999999946e-01
8.961170000000000524e-01
8.985349999999999726e-01
8.937000000000000499e-01
8.945049999999999946e-01
8.969230000000000258e-01
8.969230000000000258e-01
9.001470000000000304e-01
8.985349999999999726e-01
9.017579999999999485e-01
9.017579999999999485e-01
9.017579999999999485e-01
9.001470000000000304e-01
9.017579999999999485e-01
8.993409999999999460e-01
9.041759999999999797e-01
9.057880000000000376e-01
8.993409999999999460e-01
9.073989999999999556e-01
9.073989999999999556e-01
9.065929999999999822e-01
9.090110000000000134e-01
9.049819999999999531e-01
9.106229999999999603e-01
9.130399999999999627e-01
9.122339999999999893e-01
9.138460000000000472e-01
9.154579999999999940e-01
9.178749999999999964e-01
9.154579999999999940e-01
9.186809999999999699e-01
9.219049999999999745e-01
9.210990000000000011e-01
9.146520000000000206e-01
9.243219999999999770e-01
9.299629999999999841e-01
9.275459999999999816e-01
9.227109999999999479e-01
9.315750000000000419e-01
9.315750000000000419e-01
9.275459999999999816e-01
9.331869999999999887e-01
9.372160000000000490e-01
9.388279999999999959e-01
9.420509999999999717e-01
9.388279999999999959e-01
9.404400000000000537e-01
9.364099999999999646e-01
9.380220000000000224e-01
9.396339999999999693e-01
9.331869999999999887e-01
9.372160000000000490e-01
9.396339999999999693e-01
9.364099999999999646e-01
9.259340000000000348e-01
9.227109999999999479e-01
9.283519999999999550e-01
9.251279999999999504e-01
9.178749999999999964e-01
9.146520000000000206e-01
9.146520000000000206e-01
9.162639999999999674e-01
9.082050000000000400e-01
9.025640000000000329e-01
9.057880000000000376e-01
8.993409999999999460e-01
9.009519999999999751e-01
8.961170000000000524e-01
8.961170000000000524e-01
8.945049999999999946e-01
8.896699999999999608e-01
8.880590000000000428e-01
8.840289999999999537e-01
8.832229999999999803e-01
8.840289999999999537e-01
8.791940000000000310e-01
8.840289999999999537e-01
8.848350000000000382e-01
8.824180000000000357e-01
8.824180000000000357e-01
8.791940000000000310e-01
8.767770000000000286e-01
8.767770000000000286e-01
8.783879999999999466e-01
8.767770000000000286e-01
8.767770000000000286e-01
8.783879999999999466e-01
8.800000000000000044e-01
8.767770000000000286e-01
8.759710000000000552e-01
8.759710000000000552e-01
8.775819999999999732e-01
8.743589999999999973e-01
8.783879999999999466e-01
8.759710000000000552e-01
8.791940000000000310e-01
8.759710000000000552e-01
8.800000000000000044e-01
8.759710000000000552e-01
8.759710000000000552e-01
8.743589999999999973e-01
8.735530000000000239e-01
8.719409999999999661e-01
8.775819999999999732e-01
8.775819999999999732e-01
8.727470000000000505e-01
8.824180000000000357e-01
8.783879999999999466e-01
8.775819999999999732e-01
8.735530000000000239e-01
8.767770000000000286e-01
8.703300000000000480e-01
8.775819999999999732e-01
8.808059999999999778e-01
8.775819999999999732e-01
8.800000000000000044e-01
8.791940000000000310e-01
8.759710000000000552e-01
8.759710000000000552e-01
8.743589999999999973e-01
8.759710000000000552e-01
8.751649999999999707e-01
8.751649999999999707e-01
8.783879999999999466e-01
8.735530000000000239e-01
8.767770000000000286e-01
8.808059999999999778e-01
8.727470000000000505e-01
8.743589999999999973e-01
8.791940000000000310e-01
8.775819999999999732e-01
8.791940000000000310e-01
8.808059999999999778e-01
8.775819999999999732e-01
8.800000000000000044e-01
8.800000000000000044e-01
8.791940000000000310e-01
8.767770000000000286e-01
8.775819999999999732e-01
8.791940000000000310e-01
8.840289999999999537e-01
8.816119999999999512e-01
8.800000000000000044e-01
8.816119999999999512e-01
8.872529999999999584e-01
8.791940000000000310e-01
8.808059999999999778e-01
8.816119999999999512e-01
8.816119999999999512e-01
8.800000000000000044e-01
8.767770000000000286e-01
8.735530000000000239e-01
8.816119999999999512e-01
8.832229999999999803e-01
8.791940000000000310e-01
8.759710000000000552e-01
8.816119999999999512e-01
8.791940000000000310e-01
8.816119999999999512e-01
8.808059999999999778e-01
8.824180000000000357e-01
8.816119999999999512e-01
8.800000000000000044e-01
8.800000000000000044e-01
8.791940000000000310e-01
8.767770000000000286e-01
8.791940000000000310e-01
8.775819999999999732e-01
8.783879999999999466e-01
8.767770000000000286e-01
8.791940000000000310e-01
8.775819999999999732e-01
8.759710000000000552e-01
8.759710000000000552e-01
8.767770000000000286e-01
8.816119999999999512e-01
8.816119999999999512e-01
8.775819999999999732e-01
8.775819999999999732e-01
8.808059999999999778e-01
8.783879999999999466e-01
8.783879999999999466e-01
8.832229999999999803e-01
8.816119999999999512e-01
8.775819999999999732e-01
8.759710000000000552e-01
8.783879999999999466e-01
8.783879999999999466e-01
8.775819999999999732e-01
8.767770000000000286e-01
8.759710000000000552e-01
8.783879999999999466e-01
8.775819999999999732e-01
8.743589999999999973e-01
8.775819999999999732e-01
8.767770000000000286e-01
8.791940000000000310e-01
8.775819999999999732e-01
8.791940000000000310e-01
8.808059999999999778e-01
8.791940000000000310e-01
8.816119999999999512e-01
8.824180000000000357e-01
8.824180000000000357e-01
8.840289999999999537e-01
8.824180000000000357e-01
8.791940000000000310e-01
8.848350000000000382e-01
8.840289999999999537e-01
8.824180000000000357e-01
8.872529999999999584e-01
8.864469999999999850e-01
8.880590000000000428e-01
8.896699999999999608e-01
8.896699999999999608e-01
8.848350000000000382e-01
8.824180000000000357e-01
8.864469999999999850e-01
8.800000000000000044e-01
8.848350000000000382e-01
8.824180000000000357e-01
8.824180000000000357e-01
8.816119999999999512e-01
8.824180000000000357e-01
8.759710000000000552e-01
8.767770000000000286e-01
8.759710000000000552e-01
8.767770000000000286e-01
8.800000000000000044e-01
8.791940000000000310e-01
8.783879999999999466e-01
8.775819999999999732e-01
8.759710000000000552e-01
8.735530000000000239e-01
8.775819999999999732e-01
8.775819999999999732e-01
8.759710000000000552e-01
8.783879999999999466e-01
8.775819999999999732e-01
8.783879999999999466e-01
8.767770000000000286e-01
8.727470000000000505e-01
8.775819999999999732e-01
8.808059999999999778e-01
8.743589999999999973e-01
8.751649999999999707e-01
8.767770000000000286e-01
8.751649999999999707e-01
8.751649999999999707e-01
8.727470000000000505e-01
8.751649999999999707e-01
8.767770000000000286e-01
8.775819999999999732e-01
8.743589999999999973e-01
8.759710000000000552e-01
8.767770000000000286e-01
8.767770000000000286e-01
8.743589999999999973e-01
8.743589999999999973e-01
8.743589999999999973e-01
8.743589999999999973e-01
8.711360000000000214e-01
8.719409999999999661e-01
8.695239999999999636e-01
8.630769999999999831e-01
8.671060000000000434e-01
8.832229999999999803e-01
8.937000000000000499e-01
9.098169999999999868e-01
9.283519999999999550e-01
9.460809999999999498e-01
9.476919999999999789e-01
9.630039999999999711e-01
9.855679999999999996e-01
9.871790000000000287e-01
9.678390000000000049e-01
9.162639999999999674e-01
8.783879999999999466e-01
8.493770000000000486e-01
8.389010000000000078e-01
8.300370000000000248e-01
8.219779999999999864e-01
8.252009999999999623e-01
8.300370000000000248e-01
8.364840000000000053e-01
8.413190000000000390e-01
8.526010000000000533e-01
8.574359999999999760e-01
8.566300000000000026e-01
8.582419999999999494e-01
8.679120000000000168e-01
8.679120000000000168e-01
8.719409999999999661e-01
8.759710000000000552e-01
8.832229999999999803e-01
8.816119999999999512e-01
8.824180000000000357e-01
8.800000000000000044e-01
8.864469999999999850e-01
8.783879999999999466e-01
8.840289999999999537e-01
8.856410000000000116e-01
8.872529999999999584e-01
8.880590000000000428e-01
8.888639999999999874e-01
8.888639999999999874e-01
8.856410000000000116e-01
8.856410000000000116e-01
8.872529999999999584e-01
8.896699999999999608e-01
8.928939999999999655e-01
8.896699999999999608e-01
8.920879999999999921e-01
8.928939999999999655e-01
8.945049999999999946e-01
8.945049999999999946e-01
8.985349999999999726e-01
8.953109999999999680e-01
8.928939999999999655e-01
8.920879999999999921e-01
8.937000000000000499e-01
8.977289999999999992e-01
8.977289999999999992e-01
8.977289999999999992e-01
8.993409999999999460e-01
8.969230000000000258e-01
8.985349999999999726e-01
8.993409999999999460e-01
8.985349999999999726e-01
9.025640000000000329e-01
9.017579999999999485e-01
8.993409999999999460e-01
9.017579999999999485e-01
9.009519999999999751e-01
9.114290000000000447e-01
9.025640000000000329e-01
9.106229999999999603e-01
9.090110000000000134e-01
9.098169999999999868e-01
9.090110000000000134e-01
9.082050000000000400e-01
9.178749999999999964e-01
9.162639999999999674e-01
9.122339999999999893e-01
9.154579999999999940e-01
9.178749999999999964e-01
9.202930000000000277e-01
9.227109999999999479e-01
9.251279999999999504e-01
9.251279999999999504e-01
9.243219999999999770e-01
9.307689999999999575e-01
9.283519999999999550e-01
9.283519999999999550e-01
9.323810000000000153e-01
9.299629999999999841e-01
9.307689999999999575e-01
9.299629999999999841e-01
9.347990000000000466e-01
9.339929999999999621e-01
9.323810000000000153e-01
9.347990000000000466e-01
9.380220000000000224e-01
9.380220000000000224e-01
9.347990000000000466e-01
9.331869999999999887e-01
9.347990000000000466e-01
9.372160000000000490e-01
9.307689999999999575e-01
9.307689999999999575e-01
9.283519999999999550e-01
9.243219999999999770e-01
9.186809999999999699e-01
9.170700000000000518e-01
9.130399999999999627e-01
9.090110000000000134e-01
9.090110000000000134e-01
9.025640000000000329e-01
9.049819999999999531e-01
9.009519999999999751e-01
8.945049999999999946e-01
8.953109999999999680e-01
8.928939999999999655e-01
8.888639999999999874e-01
8.904760000000000453e-01
8.888639999999999874e-01
8.864469999999999850e-01
8.840289999999999537e-01
8.856410000000000116e-01
8.791940000000000310e-01
8.767770000000000286e-01
8.791940000000000310e-01
8.775819999999999732e-01
8.759710000000000552e-01
8.767770000000000286e-01
8.783879999999999466e-01
8.783879999999999466e-01
8.800000000000000044e-01
8.767770000000000286e-01
8.743589999999999973e-01
8.767770000000000286e-01
8.767770000000000286e-01
8.783879999999999466e-01
8.800000000000000044e-01
8.767770000000000286e-01
8.759710000000000552e-01
8.767770000000000286e-01
8.751649999999999707e-01
8.751649999999999707e-01
8.735530000000000239e-01
8.743589999999999973e-01
8.727470000000000505e-01
8.727470000000000505e-01
8.743589999999999973e-01
8.735530000000000239e-01
8.719409999999999661e-01
8.719409999999999661e-01
8.735530000000000239e-01
8.735530000000000239e-01
8.767770000000000286e-01
8.711360000000000214e-01
8.783879999999999466e-01
8.743589999999999973e-01
8.783879999999999466e-01
8.743589999999999973e-01
8.759710000000000552e-01
8.751649999999999707e-01
8.743589999999999973e-01
8.727470000000000505e-01
8.751649999999999707e-01
8.759710000000000552e-01
8.711360000000000214e-01
8.759710000000000552e-01
8.727470000000000505e-01
8.775819999999999732e-01
8.767770000000000286e-01
8.759710000000000552e-01
8.743589999999999973e-01
8.719409999999999661e-01
8.711360000000000214e-01
8.743589999999999973e-01
8.759710000000000552e-01
8.775819999999999732e-01
8.767770000000000286e-01
8.759710000000000552e-01
8.751649999999999707e-01
8.743589999999999973e-01
8.759710000000000552e-01
8.800000000000000044e-01
8.864469999999999850e-01
8.775819999999999732e-01
8.775819999999999732e-01
8.751649999999999707e-01
8.783879999999999466e-01
8.800000000000000044e-01
8.824180000000000357e-01
8.816119999999999512e-01
8.791940000000000310e-01
8.767770000000000286e-01
8.767770000000000286e-01
8.791940000000000310e-01
8.759710000000000552e-01
8.759710000000000552e-01
8.824180000000000357e-01
8.824180000000000357e-01
8.832229999999999803e-01
8.800000000000000044e-01
8.791940000000000310e-01
8.800000000000000044e-01
8.759710000000000552e-01
8.808059999999999778e-01
8.800000000000000044e-01
8.767770000000000286e-01
8.743589999999999973e-01
8.775819999999999732e-01
8.808059999999999778e-01
8.759710000000000552e-01
8.783879999999999466e-01
8.767770000000000286e-01
8.759710000000000552e-01
8.791940000000000310e-01
8.800000000000000044e-01
8.816119999999999512e-01
8.888639999999999874e-01
8.832229999999999803e-01
8.808059999999999778e-01
8.832229999999999803e-01
8.824180000000000357e-01
8.783879999999999466e-01
8.767770000000000286e-01
8.743589999999999973e-01
8.783879999999999466e-01
8.791940000000000310e-01
8.767770000000000286e-01
8.751649999999999707e-01
8.759710000000000552e-01
8.783879999999999466e-01
8.775819999999999732e-01
8.767770000000000286e-01
8.767770000000000286e-01
8.856410000000000116e-01
8.800000000000000044e-01
8.751649999999999707e-01
8.791940000000000310e-01
8.937000000000000499e-01
8.759710000000000552e-01
8.759710000000000552e-01
8.791940000000000310e-01
8.743589999999999973e-01
8.791940000000000310e-01
8.767770000000000286e-01
8.751649999999999707e-01
8.767770000000000286e-01
8.767770000000000286e-01
8.751649999999999707e-01
8.759710000000000552e-01
8.759710000000000552e-01
8.727470000000000505e-01
8.775819999999999732e-01
8.832229999999999803e-01
8.783879999999999466e-01
8.791940000000000310e-01
8.767770000000000286e-01
8.808059999999999778e-01
8.783879999999999466e-01
8.800000000000000044e-01
8.848350000000000382e-01
8.759710000000000552e-01
8.767770000000000286e-01
8.824180000000000357e-01
8.824180000000000357e-01
8.791940000000000310e-01
8.848350000000000382e-01
8.904760000000000453e-01
8.888639999999999874e-01
8.856410000000000116e-01
8.896699999999999608e-01
8.848350000000000382e-01
8.856410000000000116e-01
8.904760000000000453e-01
8.840289999999999537e-01
8.840289999999999537e-01
8.824180000000000357e-01
8.816119999999999512e-01
8.783879999999999466e-01
8.832229999999999803e-01
8.791940000000000310e-01
8.800000000000000044e-01
8.727470000000000505e-01
8.767770000000000286e-01
8.759710000000000552e-01
8.791940000000000310e-01
8.775819999999999732e-01
8.791940000000000310e-01
8.759710000000000552e-01
8.751649999999999707e-01
8.735530000000000239e-01
8.759710000000000552e-01
8.775819999999999732e-01
8.743589999999999973e-01
8.735530000000000239e-01
8.783879999999999466e-01
8.775819999999999732e-01
8.759710000000000552e-01
8.759710000000000552e-01
8.751649999999999707e-01
8.751649999999999707e-01
8.727470000000000505e-01
8.759710000000000552e-01
8.735530000000000239e-01
8.695239999999999636e-01
8.735530000000000239e-01
8.743589999999999973e-01
8.727470000000000505e-01
8.711360000000000214e-01
8.759710000000000552e-01
8.743589999999999973e-01
8.743589999999999973e-01
8.735530000000000239e-01
8.687179999999999902e-01
8.711360000000000214e-01
8.767770000000000286e-01
8.703300000000000480e-01
8.671060000000000434e-01
8.711360000000000214e-01
8.662999999999999590e-01
8.671060000000000434e-01
8.743589999999999973e-01
8.711360000000000214e-01
8.848350000000000382e-01
8.977289999999999992e-01
9.146520000000000206e-01
9.315750000000000419e-01
9.436630000000000296e-01
9.541389999999999594e-01
9.734800000000000120e-01
9.847620000000000262e-01
9.855679999999999996e-01
9.646150000000000002e-01
9.194870000000000543e-01
8.735530000000000239e-01
8.526010000000000533e-01
8.292310000000000514e-01
8.203660000000000396e-01
8.179490000000000371e-01
8.203660000000000396e-01
8.284249999999999670e-01
8.106959999999999722e-01
8.405129999999999546e-01
8.509889999999999954e-01
8.542119999999999713e-01
8.501830000000000220e-01
8.630769999999999831e-01
8.671060000000000434e-01
8.687179999999999902e-01
8.727470000000000505e-01
8.727470000000000505e-01
8.800000000000000044e-01
8.840289999999999537e-01
8.856410000000000116e-01
8.872529999999999584e-01
8.832229999999999803e-01
8.856410000000000116e-01
8.880590000000000428e-01
8.864469999999999850e-01
8.864469999999999850e-01
8.920879999999999921e-01
8.904760000000000453e-01
8.896699999999999608e-01
8.904760000000000453e-01
8.904760000000000453e-01
8.880590000000000428e-01
8.904760000000000453e-01
8.928939999999999655e-01
8.896699999999999608e-01
8.912820000000000187e-01
8.888639999999999874e-01
8.920879999999999921e-01
8.945049999999999946e-01
8.945049999999999946e-01
8.985349999999999726e-01
8.937000000000000499e-01
8.969230000000000258e-01
8.961170000000000524e-01
8.993409999999999460e-01
8.864469999999999850e-01
8.993409999999999460e-01
9.001470000000000304e-01
8.985349999999999726e-01
9.009519999999999751e-01
9.017579999999999485e-01
9.033700000000000063e-01
9.017579999999999485e-01
9.033700000000000063e-01
9.001470000000000304e-01
9.001470000000000304e-01
9.033700000000000063e-01
9.049819999999999531e-01
9.090110000000000134e-01
9.090110000000000134e-01
9.057880000000000376e-01
9.073989999999999556e-01
9.138460000000000472e-01
9.114290000000000447e-01
9.186809999999999699e-01
9.138460000000000472e-01
9.114290000000000447e-01
9.146520000000000206e-01
9.170700000000000518e-01
9.170700000000000518e-01
9.178749999999999964e-01
9.251279999999999504e-01
9.227109999999999479e-01
9.291580000000000394e-01
9.291580000000000394e-01
9.307689999999999575e-01
9.291580000000000394e-01
9.291580000000000394e-01
9.331869999999999887e-01
9.315750000000000419e-01
9.323810000000000153e-01
9.307689999999999575e-01
9.339929999999999621e-01
9.356039999999999912e-01
9.347990000000000466e-01
9.267400000000000082e-01
9.315750000000000419e-01
9.331869999999999887e-01
9.323810000000000153e-01
9.315750000000000419e-01
9.299629999999999841e-01
9.307689999999999575e-01
9.283519999999999550e-01
9.267400000000000082e-01
9.210990000000000011e-01
9.202930000000000277e-01
9.146520000000000206e-01
9.114290000000000447e-01
9.090110000000000134e-01
9.049819999999999531e-01
9.025640000000000329e-01
8.993409999999999460e-01
8.953109999999999680e-01
8.928939999999999655e-01
8.945049999999999946e-01
8.872529999999999584e-01
8.896699999999999608e-01
8.904760000000000453e-01
8.848350000000000382e-01
8.816119999999999512e-01
8.832229999999999803e-01
8.824180000000000357e-01
8.791940000000000310e-01
8.759710000000000552e-01
8.767770000000000286e-01
8.759710000000000552e-01
8.791940000000000310e-01
8.751649999999999707e-01
8.767770000000000286e-01
8.727470000000000505e-01
8.751649999999999707e-01
8.751649999999999707e-01
8.759710000000000552e-01
8.703300000000000480e-01
8.759710000000000552e-01
8.767770000000000286e-01
8.759710000000000552e-01
8.767770000000000286e-01
8.743589999999999973e-01
8.743589999999999973e-01
8.727470000000000505e-01
8.743589999999999973e-01
8.719409999999999661e-01
8.735530000000000239e-01
8.759710000000000552e-01
8.767770000000000286e-01
8.759710000000000552e-01
8.767770000000000286e-01
8.751649999999999707e-01
8.735530000000000239e-01
8.735530000000000239e-01
8.767770000000000286e-01
8.727470000000000505e-01
8.751649999999999707e-01
8.719409999999999661e-01
8.695239999999999636e-01
8.695239999999999636e-01
8.711360000000000214e-01
8.711360000000000214e-01
8.735530000000000239e-01
8.711360000000000214e-01
8.735530000000000239e-01
8.711360000000000214e-01
8.638829999999999565e-01
8.759710000000000552e-01
8.735530000000000239e-01
8.767770000000000286e-01
8.719409999999999661e-01
8.703300000000000480e-01
8.743589999999999973e-01
8.791940000000000310e-01
8.735530000000000239e-01
8.759710000000000552e-01
8.743589999999999973e-01
8.775819999999999732e-01
8.727470000000000505e-01
8.735530000000000239e-01
8.743589999999999973e-01
8.735530000000000239e-01
8.759710000000000552e-01
8.735530000000000239e-01
8.719409999999999661e-01
8.759710000000000552e-01
8.751649999999999707e-01
8.767770000000000286e-01
8.800000000000000044e-01
8.775819999999999732e-01
8.791940000000000310e-01
8.783879999999999466e-01
8.808059999999999778e-01
8.816119999999999512e-01
8.832229999999999803e-01
8.767770000000000286e-01
8.759710000000000552e-01
8.751649999999999707e-01
8.767770000000000286e-01
8.808059999999999778e-01
8.775819999999999732e-01
8.775819999999999732e-01
8.791940000000000310e-01
8.759710000000000552e-01
8.800000000000000044e-01
8.808059999999999778e-01
8.800000000000000044e-01
8.767770000000000286e-01
8.791940000000000310e-01
8.816119999999999512e-01
8.800000000000000044e-01
8.800000000000000044e-01
8.800000000000000044e-01
8.767770000000000286e-01
8.848350000000000382e-01
8.767770000000000286e-01
8.759710000000000552e-01
8.791940000000000310e-01
8.751649999999999707e-01
8.759710000000000552e-01
8.775819999999999732e-01
8.783879999999999466e-01
8.775819999999999732e-01
8.791940000000000310e-01
8.767770000000000286e-01
8.743589999999999973e-01
8.751649999999999707e-01
8.727470000000000505e-01
8.735530000000000239e-01
8.767770000000000286e-01
8.735530000000000239e-01
8.743589999999999973e-01
8.743589999999999973e-01
8.751649999999999707e-01
8.735530000000000239e-01
8.751649999999999707e-01
8.743589999999999973e-01
8.743589999999999973e-01
8.759710000000000552e-01
8.735530000000000239e-01
8.775819999999999732e-01
8.743589999999999973e-01
8.864469999999999850e-01
8.791940000000000310e-01
8.759710000000000552e-01
8.735530000000000239e-01
8.775819999999999732e-01
8.751649999999999707e-01
8.775819999999999732e-01
8.800000000000000044e-01
8.767770000000000286e-01
8.735530000000000239e-01
8.767770000000000286e-01
8.767770000000000286e-01
8.743589999999999973e-01
8.800000000000000044e-01
8.775819999999999732e-01
8.767770000000000286e-01
8.783879999999999466e-01
8.767770000000000286e-01
8.800000000000000044e-01
8.775819999999999732e-01
8.808059999999999778e-01
8.816119999999999512e-01
8.783879999999999466e-01
8.808059999999999778e-01
8.791940000000000310e-01
8.791940000000000310e-01
8.775819999999999732e-01
8.791940000000000310e-01
8.824180000000000357e-01
8.840289999999999537e-01
8.800000000000000044e-01
8.864469999999999850e-01
8.832229999999999803e-01
8.888639999999999874e-01
8.888639999999999874e-01
8.880590000000000428e-01
8.896699999999999608e-01
8.775819999999999732e-01
8.904760000000000453e-01
8.920879999999999921e-01
8.840289999999999537e-01
8.872529999999999584e-01
8.856410000000000116e-01
8.840289999999999537e-01
8.856410000000000116e-01
8.808059999999999778e-01
8.808059999999999778e-01
8.848350000000000382e-01
8.816119999999999512e-01
8.767770000000000286e-01
8.759710000000000552e-01
8.775819999999999732e-01
8.735530000000000239e-01
8.671060000000000434e-01
8.711360000000000214e-01
8.743589999999999973e-01
8.751649999999999707e-01
8.727470000000000505e-01
8.759710000000000552e-01
8.719409999999999661e-01
8.727470000000000505e-01
8.751649999999999707e-01
8.775819999999999732e-01
8.727470000000000505e-01
8.751649999999999707e-01
8.759710000000000552e-01
8.727470000000000505e-01
8.711360000000000214e-01
8.687179999999999902e-01
8.735530000000000239e-01
8.695239999999999636e-01
8.695239999999999636e-01
8.711360000000000214e-01
8.711360000000000214e-01
8.727470000000000505e-01
8.735530000000000239e-01
8.735530000000000239e-01
8.727470000000000505e-01
8.743589999999999973e-01
8.735530000000000239e-01
8.703300000000000480e-01
8.695239999999999636e-01
8.703300000000000480e-01
8.735530000000000239e-01
8.654950000000000143e-01
8.695239999999999636e-01
8.654950000000000143e-01
8.662999999999999590e-01
8.606589999999999518e-01
8.679120000000000168e-01
8.808059999999999778e-01
8.961170000000000524e-01
9.122339999999999893e-01
9.315750000000000419e-01
9.484979999999999523e-01
9.613920000000000243e-01
9.815380000000000216e-01
9.928209999999999535e-01
9.928209999999999535e-01
9.646150000000000002e-01
9.243219999999999770e-01
8.783879999999999466e-01
8.477660000000000196e-01
8.308419999999999694e-01
8.195599999999999552e-01
8.171429999999999527e-01
8.211720000000000130e-01
8.276189999999999936e-01
8.340659999999999741e-01
8.429299999999999571e-01
8.485709999999999642e-01
8.501830000000000220e-01
8.493770000000000486e-01
8.574359999999999760e-01
8.598529999999999784e-01
8.662999999999999590e-01
8.735530000000000239e-01
8.791940000000000310e-01
8.800000000000000044e-01
8.856410000000000116e-01
8.848350000000000382e-01
8.864469999999999850e-01
8.848350000000000382e-01
8.816119999999999512e-01
8.864469999999999850e-01
8.856410000000000116e-01
8.864469999999999850e-01
8.856410000000000116e-01
8.872529999999999584e-01
8.896699999999999608e-01
8.928939999999999655e-01
8.904760000000000453e-01
8.937000000000000499e-01
8.880590000000000428e-01
8.888639999999999874e-01
8.920879999999999921e-01
8.880590000000000428e-01
8.904760000000000453e-01
8.937000000000000499e-01
8.896699999999999608e-01
8.945049999999999946e-01
8.937000000000000499e-01
8.945049999999999946e-01
8.945049999999999946e-01
8.920879999999999921e-01
8.945049999999999946e-01
9.001470000000000304e-01
8.977289999999999992e-01
8.993409999999999460e-01
8.961170000000000524e-01
9.001470000000000304e-01
9.033700000000000063e-01
9.017579999999999485e-01
9.025640000000000329e-01
9.025640000000000329e-01
9.025640000000000329e-01
9.065929999999999822e-01
9.025640000000000329e-01
9.017579999999999485e-01
9.082050000000000400e-01
9.065929999999999822e-01
9.073989999999999556e-01
9.090110000000000134e-01
9.114290000000000447e-01
9.154579999999999940e-01
9.082050000000000400e-01
9.138460000000000472e-01
9.178749999999999964e-01
9.162639999999999674e-01
9.154579999999999940e-01
9.219049999999999745e-01
9.227109999999999479e-01
9.219049999999999745e-01
9.291580000000000394e-01
9.283519999999999550e-01
9.267400000000000082e-01
9.283519999999999550e-01
9.291580000000000394e-01
9.331869999999999887e-01
9.259340000000000348e-01
9.356039999999999912e-01
9.339929999999999621e-01
9.315750000000000419e-01
9.315750000000000419e-01
9.404400000000000537e-01
9.356039999999999912e-01
9.380220000000000224e-01
9.372160000000000490e-01
9.339929999999999621e-01
9.364099999999999646e-01
9.356039999999999912e-01
9.331869999999999887e-01
9.291580000000000394e-01
9.339929999999999621e-01
9.227109999999999479e-01
9.202930000000000277e-01
9.202930000000000277e-01
9.154579999999999940e-01
9.146520000000000206e-01
9.114290000000000447e-01
9.057880000000000376e-01
9.057880000000000376e-01
9.025640000000000329e-01
8.993409999999999460e-01
9.009519999999999751e-01
8.993409999999999460e-01
8.904760000000000453e-01
8.945049999999999946e-01
8.920879999999999921e-01
8.864469999999999850e-01
8.824180000000000357e-01
8.856410000000000116e-01
8.783879999999999466e-01
8.824180000000000357e-01
8.800000000000000044e-01
8.808059999999999778e-01
8.816119999999999512e-01
8.767770000000000286e-01
8.751649999999999707e-01
8.759710000000000552e-01
8.751649999999999707e-01
8.767770000000000286e-01
8.735530000000000239e-01
8.719409999999999661e-01
8.735530000000000239e-01
8.767770000000000286e-01
8.800000000000000044e-01
8.703300000000000480e-01
8.735530000000000239e-01
8.695239999999999636e-01
8.727470000000000505e-01
8.711360000000000214e-01
8.743589999999999973e-01
8.767770000000000286e-01
8.727470000000000505e-01
8.703300000000000480e-01
8.759710000000000552e-01
8.743589999999999973e-01
8.767770000000000286e-01
8.759710000000000552e-01
8.735530000000000239e-01
8.759710000000000552e-01
8.727470000000000505e-01
8.743589999999999973e-01
8.759710000000000552e-01
8.767770000000000286e-01
8.791940000000000310e-01
8.791940000000000310e-01
8.783879999999999466e-01
8.727470000000000505e-01
8.711360000000000214e-01
8.759710000000000552e-01
8.775819999999999732e-01
8.735530000000000239e-01
8.751649999999999707e-01
8.735530000000000239e-01
8.711360000000000214e-01
8.711360000000000214e-01
8.751649999999999707e-01
8.783879999999999466e-01
8.735530000000000239e-01
8.695239999999999636e-01
8.775819999999999732e-01
8.735530000000000239e-01
8.751649999999999707e-01
8.711360000000000214e-01
8.767770000000000286e-01
8.767770000000000286e-01
8.800000000000000044e-01
8.791940000000000310e-01
8.767770000000000286e-01
8.791940000000000310e-01
8.759710000000000552e-01
8.775819999999999732e-01
8.767770000000000286e-01
8.727470000000000505e-01
8.775819999999999732e-01
8.735530000000000239e-01
8.759710000000000552e-01
8.759710000000000552e-01
8.751649999999999707e-01
8.767770000000000286e-01
8.743589999999999973e-01
8.759710000000000552e-01
8.791940000000000310e-01
8.767770000000000286e-01
8.759710000000000552e-01
8.832229999999999803e-01
8.767770000000000286e-01
8.759710000000000552e-01
8.759710000000000552e-01
8.775819999999999732e-01
8.783879999999999466e-01
8.775819999999999732e-01
8.808059999999999778e-01
8.888639999999999874e-01
8.775819999999999732e-01
8.759710000000000552e-01
8.783879999999999466e-01
8.800000000000000044e-01
8.800000000000000044e-01
8.783879999999999466e-01
8.759710000000000552e-01
8.743589999999999973e-01
8.767770000000000286e-01
8.767770000000000286e-01
8.783879999999999466e-01
8.783879999999999466e-01
8.767770000000000286e-01
8.816119999999999512e-01
8.775819999999999732e-01
8.824180000000000357e-01
8.767770000000000286e-01
8.767770000000000286e-01
8.767770000000000286e-01
8.719409999999999661e-01
8.751649999999999707e-01
8.791940000000000310e-01
8.800000000000000044e-01
8.743589999999999973e-01
8.743589999999999973e-01
8.783879999999999466e-01
8.800000000000000044e-01
8.775819999999999732e-01
8.791940000000000310e-01
8.767770000000000286e-01
8.574359999999999760e-01
8.759710000000000552e-01
8.751649999999999707e-01
8.751649999999999707e-01
8.751649999999999707e-01
8.751649999999999707e-01
8.759710000000000552e-01
8.767770000000000286e-01
8.767770000000000286e-01
8.791940000000000310e-01
8.727470000000000505e-01
8.735530000000000239e-01
8.791940000000000310e-01
8.775819999999999732e-01
8.751649999999999707e-01
8.767770000000000286e-01
8.816119999999999512e-01
8.767770000000000286e-01
8.735530000000000239e-01
8.808059999999999778e-01
8.735530000000000239e-01
8.759710000000000552e-01
8.759710000000000552e-01
8.735530000000000239e-01
8.791940000000000310e-01
8.751649999999999707e-01
8.727470000000000505e-01
8.767770000000000286e-01
8.759710000000000552e-01
8.767770000000000286e-01
8.775819999999999732e-01
8.759710000000000552e-01
8.767770000000000286e-01
8.727470000000000505e-01
8.727470000000000505e-01
8.791940000000000310e-01
8.759710000000000552e-01
8.751649999999999707e-01
8.735530000000000239e-01
8.735530000000000239e-01
8.743589999999999973e-01
8.775819999999999732e-01
8.791940000000000310e-01
8.783879999999999466e-01
8.767770000000000286e-01
8.775819999999999732e-01
8.808059999999999778e-01
8.808059999999999778e-01
8.783879999999999466e-01
8.800000000000000044e-01
8.824180000000000357e-01
8.783879999999999466e-01
8.816119999999999512e-01
8.816119999999999512e-01
8.856410000000000116e-01
8.856410000000000116e-01
8.896699999999999608e-01
8.864469999999999850e-01
8.864469999999999850e-01
8.888639999999999874e-01
8.880590000000000428e-01
8.872529999999999584e-01
8.856410000000000116e-01
8.904760000000000453e-01
8.880590000000000428e-01
8.832229999999999803e-01
8.840289999999999537e-01
8.791940000000000310e-01
8.824180000000000357e-01
8.816119999999999512e-01
8.791940000000000310e-01
8.791940000000000310e-01
8.791940000000000310e-01
8.775819999999999732e-01
8.735530000000000239e-01
8.751649999999999707e-01
8.767770000000000286e-01
8.775819999999999732e-01
8.759710000000000552e-01
8.735530000000000239e-01
8.800000000000000044e-01
8.775819999999999732e-01
8.759710000000000552e-01
8.808059999999999778e-01
8.791940000000000310e-01
8.751649999999999707e-01
8.783879999999999466e-01
8.800000000000000044e-01
8.791940000000000310e-01
8.800000000000000044e-01
8.727470000000000505e-01
8.783879999999999466e-01
8.783879999999999466e-01
8.759710000000000552e-01
8.791940000000000310e-01
8.759710000000000552e-01
8.751649999999999707e-01
8.767770000000000286e-01
8.751649999999999707e-01
8.735530000000000239e-01
8.800000000000000044e-01
8.751649999999999707e-01
8.816119999999999512e-01
8.751649999999999707e-01
8.759710000000000552e-01
8.751649999999999707e-01
8.727470000000000505e-01
8.767770000000000286e-01
8.695239999999999636e-01
8.614650000000000363e-01
8.662999999999999590e-01
8.630769999999999831e-01
8.759710000000000552e-01
8.904760000000000453e-01
9.041759999999999797e-01
9.275459999999999816e-01
9.404400000000000537e-01
9.541389999999999594e-01
9.678390000000000049e-01
9.839560000000000528e-01
9.912090000000000067e-01
9.815380000000000216e-01
9.412449999999999983e-01
8.912820000000000187e-01
8.679120000000000168e-01
8.509889999999999954e-01
8.268130000000000202e-01
8.211720000000000130e-01
8.227839999999999598e-01
8.268130000000000202e-01
8.380950000000000344e-01
8.413190000000000390e-01
8.421250000000000124e-01
8.534070000000000267e-01
8.566300000000000026e-01
8.501830000000000220e-01
8.606589999999999518e-01
8.662999999999999590e-01
8.711360000000000214e-01
8.751649999999999707e-01
8.808059999999999778e-01
8.864469999999999850e-01
8.848350000000000382e-01
8.832229999999999803e-01
8.864469999999999850e-01
8.864469999999999850e-01
8.888639999999999874e-01
8.864469999999999850e-01
8.937000000000000499e-01
8.888639999999999874e-01
8.840289999999999537e-01
8.904760000000000453e-01
8.920879999999999921e-01
8.864469999999999850e-01
8.896699999999999608e-01
8.937000000000000499e-01
8.920879999999999921e-01
8.993409999999999460e-01
8.928939999999999655e-01
8.937000000000000499e-01
8.961170000000000524e-01
8.953109999999999680e-01
8.961170000000000524e-01
8.945049999999999946e-01
8.969230000000000258e-01
8.937000000000000499e-01
8.961170000000000524e-01
8.953109999999999680e-01
8.977289999999999992e-01
8.961170000000000524e-01
8.993409999999999460e-01
8.969230000000000258e-01
8.993409999999999460e-01
8.993409999999999460e-01
9.041759999999999797e-01
9.057880000000000376e-01
9.073989999999999556e-01
9.041759999999999797e-01
9.025640000000000329e-01
9.082050000000000400e-01
9.090110000000000134e-01
9.033700000000000063e-01
9.154579999999999940e-01
9.122339999999999893e-01
9.122339999999999893e-01
9.082050000000000400e-01
9.082050000000000400e-01
9.106229999999999603e-01
9.138460000000000472e-01
9.154579999999999940e-01
9.154579999999999940e-01
9.259340000000000348e-01
9.210990000000000011e-01
9.251279999999999504e-01
9.210990000000000011e-01
9.227109999999999479e-01
9.283519999999999550e-01
9.267400000000000082e-01
9.275459999999999816e-01
9.299629999999999841e-01
9.331869999999999887e-01
9.307689999999999575e-01
9.323810000000000153e-01
9.372160000000000490e-01
9.356039999999999912e-01
9.412449999999999983e-01
9.372160000000000490e-01
9.372160000000000490e-01
9.372160000000000490e-01
9.364099999999999646e-01
9.380220000000000224e-01
9.380220000000000224e-01
9.388279999999999959e-01
9.331869999999999887e-01
9.331869999999999887e-01
9.323810000000000153e-01
9.243219999999999770e-01
9.283519999999999550e-01
9.235160000000000036e-01
9.235160000000000036e-01
9.146520000000000206e-01
8.928939999999999655e-01
9.065929999999999822e-01
9.049819999999999531e-01
9.025640000000000329e-01
9.041759999999999797e-01
8.993409999999999460e-01
9.009519999999999751e-01
8.953109999999999680e-01
8.953109999999999680e-01
8.872529999999999584e-01
8.928939999999999655e-01
8.864469999999999850e-01
8.864469999999999850e-01
8.816119999999999512e-01
8.791940000000000310e-01
8.832229999999999803e-01
8.840289999999999537e-01
8.808059999999999778e-01
8.800000000000000044e-01
8.783879999999999466e-01
8.783879999999999466e-01
8.791940000000000310e-01
8.824180000000000357e-01
8.840289999999999537e-01
8.800000000000000044e-01
8.783879999999999466e-01
8.759710000000000552e-01
8.767770000000000286e-01
8.767770000000000286e-01
8.824180000000000357e-01
8.800000000000000044e-01
8.735530000000000239e-01
8.783879999999999466e-01
8.735530000000000239e-01
8.751649999999999707e-01
8.791940000000000310e-01
8.775819999999999732e-01
8.735530000000000239e-01
8.759710000000000552e-01
8.759710000000000552e-01
8.751649999999999707e-01
8.767770000000000286e-01
8.759710000000000552e-01
8.791940000000000310e-01
8.759710000000000552e-01
8.735530000000000239e-01
8.767770000000000286e-01
8.759710000000000552e-01
8.743589999999999973e-01
8.775819999999999732e-01
8.759710000000000552e-01
8.719409999999999661e-01
8.751649999999999707e-01
8.743589999999999973e-01
8.767770000000000286e-01
8.800000000000000044e-01
8.751649999999999707e-01
8.791940000000000310e-01
8.767770000000000286e-01
8.767770000000000286e-01
8.759710000000000552e-01
8.791940000000000310e-01
8.775819999999999732e-01
8.751649999999999707e-01
8.767770000000000286e-01
8.695239999999999636e-01
8.783879999999999466e-01
8.775819999999999732e-01
8.775819999999999732e-01
8.791940000000000310e-01
8.759710000000000552e-01
8.808059999999999778e-01
8.759710000000000552e-01
8.808059999999999778e-01
8.816119999999999512e-01
8.808059999999999778e-01
8.775819999999999732e-01
8.759710000000000552e-01
8.751649999999999707e-01
8.816119999999999512e-01
8.791940000000000310e-01
8.783879999999999466e-01
8.856410000000000116e-01
8.767770000000000286e-01
8.791940000000000310e-01
8.767770000000000286e-01
8.759710000000000552e-01
8.808059999999999778e-01
8.791940000000000310e-01
8.808059999999999778e-01
8.808059999999999778e-01
8.751649999999999707e-01
8.816119999999999512e-01
8.824180000000000357e-01
8.816119999999999512e-01
8.800000000000000044e-01
8.775819999999999732e-01
8.824180000000000357e-01
8.775819999999999732e-01
8.824180000000000357e-01
8.872529999999999584e-01
8.832229999999999803e-01
8.800000000000000044e-01
8.791940000000000310e-01
8.767770000000000286e-01
8.800000000000000044e-01
8.783879999999999466e-01
8.751649999999999707e-01
8.791940000000000310e-01
8.767770000000000286e-01
8.808059999999999778e-01
8.832229999999999803e-01
8.816119999999999512e-01
8.775819999999999732e-01
8.824180000000000357e-01
8.791940000000000310e-01
8.808059999999999778e-01
8.791940000000000310e-01
8.824180000000000357e-01
8.775819999999999732e-01
8.783879999999999466e-01
8.775819999999999732e-01
8.743589999999999973e-01
8.800000000000000044e-01
8.808059999999999778e-01
8.767770000000000286e-01
8.775819999999999732e-01
8.800000000000000044e-01
8.775819999999999732e-01
8.759710000000000552e-01
8.735530000000000239e-01
8.888639999999999874e-01
8.800000000000000044e-01
8.816119999999999512e-01
8.800000000000000044e-01
8.743589999999999973e-01
8.767770000000000286e-01
8.791940000000000310e-01
8.767770000000000286e-01
8.775819999999999732e-01
8.759710000000000552e-01
8.775819999999999732e-01
8.791940000000000310e-01
8.775819999999999732e-01
8.775819999999999732e-01
8.735530000000000239e-01
8.791940000000000310e-01
8.783879999999999466e-01
8.816119999999999512e-01
8.775819999999999732e-01
8.767770000000000286e-01
8.791940000000000310e-01
8.791940000000000310e-01
8.808059999999999778e-01
8.791940000000000310e-01
8.800000000000000044e-01
8.759710000000000552e-01
8.824180000000000357e-01
8.808059999999999778e-01
8.791940000000000310e-01
8.783879999999999466e-01
8.759710000000000552e-01
8.783879999999999466e-01
8.800000000000000044e-01
8.840289999999999537e-01
8.840289999999999537e-01
8.864469999999999850e-01
8.808059999999999778e-01
8.840289999999999537e-01
8.824180000000000357e-01
8.872529999999999584e-01
8.920879999999999921e-01
8.880590000000000428e-01
8.888639999999999874e-01
8.856410000000000116e-01
8.840289999999999537e-01
8.856410000000000116e-01
8.880590000000000428e-01
8.856410000000000116e-01
8.832229999999999803e-01
8.928939999999999655e-01
8.880590000000000428e-01
8.840289999999999537e-01
8.800000000000000044e-01
8.816119999999999512e-01
8.816119999999999512e-01
8.775819999999999732e-01
8.937000000000000499e-01
8.767770000000000286e-01
8.775819999999999732e-01
8.775819999999999732e-01
8.808059999999999778e-01
8.767770000000000286e-01
8.727470000000000505e-01
8.791940000000000310e-01
8.767770000000000286e-01
8.800000000000000044e-01
8.783879999999999466e-01
8.501830000000000220e-01
8.783879999999999466e-01
8.759710000000000552e-01
8.743589999999999973e-01
8.791940000000000310e-01
8.719409999999999661e-01
8.767770000000000286e-01
8.751649999999999707e-01
8.767770000000000286e-01
8.735530000000000239e-01
8.743589999999999973e-01
8.727470000000000505e-01
8.727470000000000505e-01
8.743589999999999973e-01
8.767770000000000286e-01
8.783879999999999466e-01
8.759710000000000552e-01
8.791940000000000310e-01
8.767770000000000286e-01
8.751649999999999707e-01
8.735530000000000239e-01
8.751649999999999707e-01
8.751649999999999707e-01
8.735530000000000239e-01
8.711360000000000214e-01
8.679120000000000168e-01
8.606589999999999518e-01
8.646890000000000409e-01
8.759710000000000552e-01
8.961170000000000524e-01
9.001470000000000304e-01
9.194870000000000543e-01
9.356039999999999912e-01
9.509159999999999835e-01
9.678390000000000049e-01
9.783150000000000457e-01
9.936260000000000092e-01
9.839560000000000528e-01
9.468860000000000054e-01
8.985349999999999726e-01
8.622710000000000097e-01
8.501830000000000220e-01
8.324540000000000273e-01
8.219779999999999864e-01
8.268130000000000202e-01
8.252009999999999623e-01
8.356780000000000319e-01
8.397069999999999812e-01
8.477660000000000196e-01
8.509889999999999954e-01
8.534070000000000267e-01
8.534070000000000267e-01
8.598529999999999784e-01
8.638829999999999565e-01
8.727470000000000505e-01
8.727470000000000505e-01
8.767770000000000286e-01
8.840289999999999537e-01
8.848350000000000382e-01
8.848350000000000382e-01
8.832229999999999803e-01
8.824180000000000357e-01
8.840289999999999537e-01
8.800000000000000044e-01
8.856410000000000116e-01
8.880590000000000428e-01
8.896699999999999608e-01
8.896699999999999608e-01
8.896699999999999608e-01
8.896699999999999608e-01
8.912820000000000187e-01
8.920879999999999921e-01
8.896699999999999608e-01
8.880590000000000428e-01
8.904760000000000453e-01
8.920879999999999921e-01
8.912820000000000187e-01
8.945049999999999946e-01
8.888639999999999874e-01
8.961170000000000524e-01
8.920879999999999921e-01
8.937000000000000499e-01
8.920879999999999921e-01
8.961170000000000524e-01
8.953109999999999680e-01
9.041759999999999797e-01
8.945049999999999946e-01
8.945049999999999946e-01
8.912820000000000187e-01
8.993409999999999460e-01
8.993409999999999460e-01
9.017579999999999485e-01
9.001470000000000304e-01
9.009519999999999751e-01
9.025640000000000329e-01
9.025640000000000329e-01
9.057880000000000376e-01
9.041759999999999797e-01
9.090110000000000134e-01
9.065929999999999822e-01
9.082050000000000400e-01
9.090110000000000134e-01
9.130399999999999627e-01
9.082050000000000400e-01
9.138460000000000472e-01
9.146520000000000206e-01
9.178749999999999964e-01
9.170700000000000518e-01
9.162639999999999674e-01
9.219049999999999745e-01
9.219049999999999745e-01
9.251279999999999504e-01
9.235160000000000036e-01
9.178749999999999964e-01
9.267400000000000082e-01
9.267400000000000082e-01
9.275459999999999816e-01
9.291580000000000394e-01
9.291580000000000394e-01
9.283519999999999550e-01
9.315750000000000419e-01
9.339929999999999621e-01
9.339929999999999621e-01
9.323810000000000153e-01
9.323810000000000153e-01
9.356039999999999912e-01
9.331869999999999887e-01
9.339929999999999621e-01
9.380220000000000224e-01
9.347990000000000466e-01
9.299629999999999841e-01
9.283519999999999550e-01
9.291580000000000394e-01
9.210990000000000011e-01
9.227109999999999479e-01
9.162639999999999674e-01
9.138460000000000472e-01
9.057880000000000376e-01
9.082050000000000400e-01
9.073989999999999556e-01
9.017579999999999485e-01
8.969230000000000258e-01
8.969230000000000258e-01
8.961170000000000524e-01
8.961170000000000524e-01
8.969230000000000258e-01
8.872529999999999584e-01
8.856410000000000116e-01
8.888639999999999874e-01
8.800000000000000044e-01
8.888639999999999874e-01
8.800000000000000044e-01
8.783879999999999466e-01
8.767770000000000286e-01
8.767770000000000286e-01
8.767770000000000286e-01
8.808059999999999778e-01
8.759710000000000552e-01
8.767770000000000286e-01
8.695239999999999636e-01
8.727470000000000505e-01
8.775819999999999732e-01
8.775819999999999732e-01
8.727470000000000505e-01
8.743589999999999973e-01
8.727470000000000505e-01
8.743589999999999973e-01
8.767770000000000286e-01
8.775819999999999732e-01
8.743589999999999973e-01
8.743589999999999973e-01
8.719409999999999661e-01
8.767770000000000286e-01
8.783879999999999466e-01
8.767770000000000286e-01
8.759710000000000552e-01
8.719409999999999661e-01
8.751649999999999707e-01
8.719409999999999661e-01
8.783879999999999466e-01
8.743589999999999973e-01
8.751649999999999707e-01
8.783879999999999466e-01
8.727470000000000505e-01
8.791940000000000310e-01
8.695239999999999636e-01
8.703300000000000480e-01
8.735530000000000239e-01
8.751649999999999707e-01
8.751649999999999707e-01
8.751649999999999707e-01
8.711360000000000214e-01
8.695239999999999636e-01
8.735530000000000239e-01
8.735530000000000239e-01
8.727470000000000505e-01
8.751649999999999707e-01
8.727470000000000505e-01
8.727470000000000505e-01
8.743589999999999973e-01
8.719409999999999661e-01
8.703300000000000480e-01
8.759710000000000552e-01
8.711360000000000214e-01
8.800000000000000044e-01
8.751649999999999707e-01
8.695239999999999636e-01
8.775819999999999732e-01
8.767770000000000286e-01
8.783879999999999466e-01
8.767770000000000286e-01
8.743589999999999973e-01
8.743589999999999973e-01
8.759710000000000552e-01
8.767770000000000286e-01
8.791940000000000310e-01
8.703300000000000480e-01
8.808059999999999778e-01
8.727470000000000505e-01
8.775819999999999732e-01
8.767770000000000286e-01
8.864469999999999850e-01
8.711360000000000214e-01
8.743589999999999973e-01
8.791940000000000310e-01
8.735530000000000239e-01
8.767770000000000286e-01
8.791940000000000310e-01
8.816119999999999512e-01
8.808059999999999778e-01
8.808059999999999778e-01
8.767770000000000286e-01
8.783879999999999466e-01
8.832229999999999803e-01
8.743589999999999973e-01
8.775819999999999732e-01
8.783879999999999466e-01
8.808059999999999778e-01
8.824180000000000357e-01
8.630769999999999831e-01
8.767770000000000286e-01
8.759710000000000552e-01
8.727470000000000505e-01
8.808059999999999778e-01
8.735530000000000239e-01
8.791940000000000310e-01
8.767770000000000286e-01
8.759710000000000552e-01
8.759710000000000552e-01
8.759710000000000552e-01
8.735530000000000239e-01
8.751649999999999707e-01
8.727470000000000505e-01
8.727470000000000505e-01
8.767770000000000286e-01
8.767770000000000286e-01
8.791940000000000310e-01
8.751649999999999707e-01
8.759710000000000552e-01
8.775819999999999732e-01
8.775819999999999732e-01
8.727470000000000505e-01
8.783879999999999466e-01
8.727470000000000505e-01
8.775819999999999732e-01
8.727470000000000505e-01
8.775819999999999732e-01
8.783879999999999466e-01
8.719409999999999661e-01
8.735530000000000239e-01
8.695239999999999636e-01
8.751649999999999707e-01
8.808059999999999778e-01
8.759710000000000552e-01
8.679120000000000168e-01
8.759710000000000552e-01
8.759710000000000552e-01
8.727470000000000505e-01
8.743589999999999973e-01
8.783879999999999466e-01
8.759710000000000552e-01
8.759710000000000552e-01
8.751649999999999707e-01
8.743589999999999973e-01
8.751649999999999707e-01
8.727470000000000505e-01
8.775819999999999732e-01
8.735530000000000239e-01
8.735530000000000239e-01
8.767770000000000286e-01
8.719409999999999661e-01
8.711360000000000214e-01
8.816119999999999512e-01
8.743589999999999973e-01
8.727470000000000505e-01
8.735530000000000239e-01
8.735530000000000239e-01
8.800000000000000044e-01
8.759710000000000552e-01
8.775819999999999732e-01
8.759710000000000552e-01
8.727470000000000505e-01
8.759710000000000552e-01
8.783879999999999466e-01
8.751649999999999707e-01
8.824180000000000357e-01
8.743589999999999973e-01
8.735530000000000239e-01
8.735530000000000239e-01
8.775819999999999732e-01
8.759710000000000552e-01
8.791940000000000310e-01
8.775819999999999732e-01
8.791940000000000310e-01
8.759710000000000552e-01
8.775819999999999732e-01
8.775819999999999732e-01
8.743589999999999973e-01
8.791940000000000310e-01
8.791940000000000310e-01
8.800000000000000044e-01
8.791940000000000310e-01
8.816119999999999512e-01
8.824180000000000357e-01
8.880590000000000428e-01
8.896699999999999608e-01
8.953109999999999680e-01
8.872529999999999584e-01
8.888639999999999874e-01
8.872529999999999584e-01
8.848350000000000382e-01
8.800000000000000044e-01
8.824180000000000357e-01
8.808059999999999778e-01
8.791940000000000310e-01
8.816119999999999512e-01
8.800000000000000044e-01
8.775819999999999732e-01
8.808059999999999778e-01
8.767770000000000286e-01
8.800000000000000044e-01
8.735530000000000239e-01
8.775819999999999732e-01
8.751649999999999707e-01
8.759710000000000552e-01
8.767770000000000286e-01
8.735530000000000239e-01
8.767770000000000286e-01
8.743589999999999973e-01
8.687179999999999902e-01
8.727470000000000505e-01
8.783879999999999466e-01
8.767770000000000286e-01
8.767770000000000286e-01
8.735530000000000239e-01
8.759710000000000552e-01
8.759710000000000552e-01
8.751649999999999707e-01
8.759710000000000552e-01
8.703300000000000480e-01
8.695239999999999636e-01
8.711360000000000214e-01
8.775819999999999732e-01
8.711360000000000214e-01
8.703300000000000480e-01
8.711360000000000214e-01
8.759710000000000552e-01
8.687179999999999902e-01
8.759710000000000552e-01
8.703300000000000480e-01
8.687179999999999902e-01
8.719409999999999661e-01
8.719409999999999661e-01
8.687179999999999902e-01
8.711360000000000214e-01
8.662999999999999590e-01
8.654950000000000143e-01
8.630769999999999831e-01
8.598529999999999784e-01
8.695239999999999636e-01
8.791940000000000310e-01
8.977289999999999992e-01
9.073989999999999556e-01
9.307689999999999575e-01
9.444690000000000030e-01
9.557510000000000172e-01
9.734800000000000120e-01
9.879850000000000021e-01
9.895969999999999489e-01
9.662269999999999470e-01
9.243219999999999770e-01
8.775819999999999732e-01
8.558240000000000292e-01
8.187550000000000106e-01
8.252009999999999623e-01
8.203660000000000396e-01
8.243960000000000177e-01
8.260070000000000467e-01
8.300370000000000248e-01
8.397069999999999812e-01
8.461539999999999617e-01
8.534070000000000267e-01
8.517949999999999688e-01
8.582419999999999494e-01
8.550179999999999447e-01
8.606589999999999518e-01
8.695239999999999636e-01
8.743589999999999973e-01
8.759710000000000552e-01
8.856410000000000116e-01
8.832229999999999803e-01
8.808059999999999778e-01
8.848350000000000382e-01
8.824180000000000357e-01
8.888639999999999874e-01
8.856410000000000116e-01
8.864469999999999850e-01
8.872529999999999584e-01
8.856410000000000116e-01
8.864469999999999850e-01
8.880590000000000428e-01
8.896699999999999608e-01
8.880590000000000428e-01
8.912820000000000187e-01
8.864469999999999850e-01
8.896699999999999608e-01
8.920879999999999921e-01
8.888639999999999874e-01
8.928939999999999655e-01
8.912820000000000187e-01
8.969230000000000258e-01
8.912820000000000187e-01
8.945049999999999946e-01
8.953109999999999680e-01
8.937000000000000499e-01
9.009519999999999751e-01
8.961170000000000524e-01
8.953109999999999680e-01
8.953109999999999680e-01
8.945049999999999946e-01
8.953109999999999680e-01
8.969230000000000258e-01
8.961170000000000524e-01
8.928939999999999655e-01
9.017579999999999485e-01
9.090110000000000134e-01
9.001470000000000304e-01
9.049819999999999531e-01
9.082050000000000400e-01
9.057880000000000376e-01
9.114290000000000447e-01
9.082050000000000400e-01
9.082050000000000400e-01
9.082050000000000400e-01
9.122339999999999893e-01
9.114290000000000447e-01
9.146520000000000206e-01
9.122339999999999893e-01
9.178749999999999964e-01
9.186809999999999699e-01
9.170700000000000518e-01
9.178749999999999964e-01
9.210990000000000011e-01
9.243219999999999770e-01
9.299629999999999841e-01
9.235160000000000036e-01
9.251279999999999504e-01
9.251279999999999504e-01
9.275459999999999816e-01
9.275459999999999816e-01
9.315750000000000419e-01
9.291580000000000394e-01
9.331869999999999887e-01
9.372160000000000490e-01
9.380220000000000224e-01
9.347990000000000466e-01
9.372160000000000490e-01
9.347990000000000466e-01
9.372160000000000490e-01
9.364099999999999646e-01
9.396339999999999693e-01
9.323810000000000153e-01
9.307689999999999575e-01
9.283519999999999550e-01
9.283519999999999550e-01
9.210990000000000011e-01
9.219049999999999745e-01
9.202930000000000277e-01
9.154579999999999940e-01
9.138460000000000472e-01
9.065929999999999822e-01
9.049819999999999531e-01
9.025640000000000329e-01
8.969230000000000258e-01
9.033700000000000063e-01
8.953109999999999680e-01
8.928939999999999655e-01
8.888639999999999874e-01
8.864469999999999850e-01
8.864469999999999850e-01
8.888639999999999874e-01
8.816119999999999512e-01
8.824180000000000357e-01
8.816119999999999512e-01
8.816119999999999512e-01
8.751649999999999707e-01
8.735530000000000239e-01
8.800000000000000044e-01
8.751649999999999707e-01
8.751649999999999707e-01
8.751649999999999707e-01
8.767770000000000286e-01
8.767770000000000286e-01
8.751649999999999707e-01
8.695239999999999636e-01
8.743589999999999973e-01
8.719409999999999661e-01
8.743589999999999973e-01
8.735530000000000239e-01
8.727470000000000505e-01
8.735530000000000239e-01
8.743589999999999973e-01
8.735530000000000239e-01
8.703300000000000480e-01
8.703300000000000480e-01
8.679120000000000168e-01
8.703300000000000480e-01
8.711360000000000214e-01
8.703300000000000480e-01
8.743589999999999973e-01
8.727470000000000505e-01
8.751649999999999707e-01
8.727470000000000505e-01
8.727470000000000505e-01
8.719409999999999661e-01
8.727470000000000505e-01
8.759710000000000552e-01
8.735530000000000239e-01
8.703300000000000480e-01
8.703300000000000480e-01
8.751649999999999707e-01
8.727470000000000505e-01
8.743589999999999973e-01
8.783879999999999466e-01
8.719409999999999661e-01
8.695239999999999636e-01
8.719409999999999661e-01
8.767770000000000286e-01
8.695239999999999636e-01
8.719409999999999661e-01
8.791940000000000310e-01
8.743589999999999973e-01
8.719409999999999661e-01
8.767770000000000286e-01
8.727470000000000505e-01
8.727470000000000505e-01
8.751649999999999707e-01
8.719409999999999661e-01
8.703300000000000480e-01
8.743589999999999973e-01
8.751649999999999707e-01
8.727470000000000505e-01
8.767770000000000286e-01
8.727470000000000505e-01
8.727470000000000505e-01
8.743589999999999973e-01
8.751649999999999707e-01
8.751649999999999707e-01
8.767770000000000286e-01
8.703300000000000480e-01
8.711360000000000214e-01
8.759710000000000552e-01
8.767770000000000286e-01
8.735530000000000239e-01
8.800000000000000044e-01
8.767770000000000286e-01
8.759710000000000552e-01
8.816119999999999512e-01
8.775819999999999732e-01
8.759710000000000552e-01
8.775819999999999732e-01
8.759710000000000552e-01
8.775819999999999732e-01
8.719409999999999661e-01
8.727470000000000505e-01
8.759710000000000552e-01
8.767770000000000286e-01
8.727470000000000505e-01
8.735530000000000239e-01
8.816119999999999512e-01
8.783879999999999466e-01
8.759710000000000552e-01
8.767770000000000286e-01
8.775819999999999732e-01
8.759710000000000552e-01
8.759710000000000552e-01
8.767770000000000286e-01
8.735530000000000239e-01
8.767770000000000286e-01
8.727470000000000505e-01
8.735530000000000239e-01
8.767770000000000286e-01
8.791940000000000310e-01
8.775819999999999732e-01
8.751649999999999707e-01
8.800000000000000044e-01
8.703300000000000480e-01
8.727470000000000505e-01
8.759710000000000552e-01
8.751649999999999707e-01
8.767770000000000286e-01
8.767770000000000286e-01
8.759710000000000552e-01
8.759710000000000552e-01
8.743589999999999973e-01
8.727470000000000505e-01
8.727470000000000505e-01
8.767770000000000286e-01
8.743589999999999973e-01
8.759710000000000552e-01
8.711360000000000214e-01
8.703300000000000480e-01
8.735530000000000239e-01
8.727470000000000505e-01
8.695239999999999636e-01
8.485709999999999642e-01
8.735530000000000239e-01
8.727470000000000505e-01
8.727470000000000505e-01
8.727470000000000505e-01
8.751649999999999707e-01
8.759710000000000552e-01
8.735530000000000239e-01
8.759710000000000552e-01
8.711360000000000214e-01
8.687179999999999902e-01
8.759710000000000552e-01
8.751649999999999707e-01
8.743589999999999973e-01
8.735530000000000239e-01
8.735530000000000239e-01
8.711360000000000214e-01
8.703300000000000480e-01
8.751649999999999707e-01
8.743589999999999973e-01
8.751649999999999707e-01
8.759710000000000552e-01
8.767770000000000286e-01
8.767770000000000286e-01
8.711360000000000214e-01
8.727470000000000505e-01
8.767770000000000286e-01
8.727470000000000505e-01
8.751649999999999707e-01
8.759710000000000552e-01
8.727470000000000505e-01
8.743589999999999973e-01
8.759710000000000552e-01
8.743589999999999973e-01
8.775819999999999732e-01
8.743589999999999973e-01
8.751649999999999707e-01
8.703300000000000480e-01
8.711360000000000214e-01
8.687179999999999902e-01
8.703300000000000480e-01
8.743589999999999973e-01
8.759710000000000552e-01
8.719409999999999661e-01
8.727470000000000505e-01
8.759710000000000552e-01
8.759710000000000552e-01
8.775819999999999732e-01
8.767770000000000286e-01
8.759710000000000552e-01
8.743589999999999973e-01
8.743589999999999973e-01
8.735530000000000239e-01
8.767770000000000286e-01
8.727470000000000505e-01
8.679120000000000168e-01
8.727470000000000505e-01
8.751649999999999707e-01
8.727470000000000505e-01
8.727470000000000505e-01
8.727470000000000505e-01
8.767770000000000286e-01
8.775819999999999732e-01
8.791940000000000310e-01
8.791940000000000310e-01
8.816119999999999512e-01
8.743589999999999973e-01
8.783879999999999466e-01
8.783879999999999466e-01
8.800000000000000044e-01
8.775819999999999732e-01
8.800000000000000044e-01
8.816119999999999512e-01
8.791940000000000310e-01
8.856410000000000116e-01
8.824180000000000357e-01
8.864469999999999850e-01
8.856410000000000116e-01
8.864469999999999850e-01
8.864469999999999850e-01
8.856410000000000116e-01
8.832229999999999803e-01
8.824180000000000357e-01
8.840289999999999537e-01
8.816119999999999512e-01
8.824180000000000357e-01
8.824180000000000357e-01
8.816119999999999512e-01
8.832229999999999803e-01
8.824180000000000357e-01
8.751649999999999707e-01
8.727470000000000505e-01
8.824180000000000357e-01
8.759710000000000552e-01
8.735530000000000239e-01
8.783879999999999466e-01
8.743589999999999973e-01
8.751649999999999707e-01
8.767770000000000286e-01
8.759710000000000552e-01
8.735530000000000239e-01
8.775819999999999732e-01
8.743589999999999973e-01
8.743589999999999973e-01
8.767770000000000286e-01
8.783879999999999466e-01
8.695239999999999636e-01
8.687179999999999902e-01
8.687179999999999902e-01
8.711360000000000214e-01
8.743589999999999973e-01
8.695239999999999636e-01
8.703300000000000480e-01
8.775819999999999732e-01
8.735530000000000239e-01
8.759710000000000552e-01
8.517949999999999688e-01
8.695239999999999636e-01
8.695239999999999636e-01
8.711360000000000214e-01
8.719409999999999661e-01
8.654950000000000143e-01
8.727470000000000505e-01
8.703300000000000480e-01
8.719409999999999661e-01
8.654950000000000143e-01
8.695239999999999636e-01
8.646890000000000409e-01
8.630769999999999831e-01
8.622710000000000097e-01
8.703300000000000480e-01
8.791940000000000310e-01
9.001470000000000304e-01
9.186809999999999699e-01
9.388279999999999959e-01
9.517219999999999569e-01
9.638099999999999445e-01
9.758970000000000145e-01
9.863739999999999730e-01
9.855679999999999996e-01
9.509159999999999835e-01
9.025640000000000329e-01
8.687179999999999902e-01
8.477660000000000196e-01
8.316480000000000539e-01
8.227839999999999598e-01
8.187550000000000106e-01
8.268130000000000202e-01
8.340659999999999741e-01
8.316480000000000539e-01
8.372889999999999500e-01
8.469600000000000461e-01
8.509889999999999954e-01
8.517949999999999688e-01
8.598529999999999784e-01
8.606589999999999518e-01
8.783879999999999466e-01
8.711360000000000214e-01
8.808059999999999778e-01
8.808059999999999778e-01
8.824180000000000357e-01
8.816119999999999512e-01
8.832229999999999803e-01
8.840289999999999537e-01
8.832229999999999803e-01
8.824180000000000357e-01
8.832229999999999803e-01
8.824180000000000357e-01
8.864469999999999850e-01
8.695239999999999636e-01
8.904760000000000453e-01
8.888639999999999874e-01
8.896699999999999608e-01
8.856410000000000116e-01
8.904760000000000453e-01
8.888639999999999874e-01
8.937000000000000499e-01
8.896699999999999608e-01
8.928939999999999655e-01
8.928939999999999655e-01
8.937000000000000499e-01
8.961170000000000524e-01
8.912820000000000187e-01
8.953109999999999680e-01
8.945049999999999946e-01
8.928939999999999655e-01
8.977289999999999992e-01
8.977289999999999992e-01
8.945049999999999946e-01
9.025640000000000329e-01
8.993409999999999460e-01
9.001470000000000304e-01
8.993409999999999460e-01
8.985349999999999726e-01
8.953109999999999680e-01
9.041759999999999797e-01
8.977289999999999992e-01
9.009519999999999751e-01
9.130399999999999627e-01
9.090110000000000134e-01
9.041759999999999797e-01
9.033700000000000063e-01
9.082050000000000400e-01
9.073989999999999556e-01
9.082050000000000400e-01
9.130399999999999627e-01
9.138460000000000472e-01
9.122339999999999893e-01
9.146520000000000206e-01
9.170700000000000518e-01
9.178749999999999964e-01
9.202930000000000277e-01
9.219049999999999745e-01
9.186809999999999699e-01
9.219049999999999745e-01
9.210990000000000011e-01
9.323810000000000153e-01
9.251279999999999504e-01
9.275459999999999816e-01
9.299629999999999841e-01
9.307689999999999575e-01
9.347990000000000466e-01
9.364099999999999646e-01
9.331869999999999887e-01
9.339929999999999621e-01
9.315750000000000419e-01
9.347990000000000466e-01
9.339929999999999621e-01
9.331869999999999887e-01
9.339929999999999621e-01
9.347990000000000466e-01
9.380220000000000224e-01
9.339929999999999621e-01
9.331869999999999887e-01
9.299629999999999841e-01
9.283519999999999550e-01
9.251279999999999504e-01
9.202930000000000277e-01
9.194870000000000543e-01
9.146520000000000206e-01
9.170700000000000518e-01
9.082050000000000400e-01
9.073989999999999556e-01
9.049819999999999531e-01
8.977289999999999992e-01
8.993409999999999460e-01
8.937000000000000499e-01
8.937000000000000499e-01
8.928939999999999655e-01
8.953109999999999680e-01
8.864469999999999850e-01
8.848350000000000382e-01
8.872529999999999584e-01
8.800000000000000044e-01
8.783879999999999466e-01
8.832229999999999803e-01
8.840289999999999537e-01
8.824180000000000357e-01
8.767770000000000286e-01
8.743589999999999973e-01
8.832229999999999803e-01
8.783879999999999466e-01
8.727470000000000505e-01
8.767770000000000286e-01
8.735530000000000239e-01
8.783879999999999466e-01
8.775819999999999732e-01
8.751649999999999707e-01
8.735530000000000239e-01
8.711360000000000214e-01
8.751649999999999707e-01
8.751649999999999707e-01
8.767770000000000286e-01
8.791940000000000310e-01
8.735530000000000239e-01
8.719409999999999661e-01
8.751649999999999707e-01
8.727470000000000505e-01
8.727470000000000505e-01
8.743589999999999973e-01
8.791940000000000310e-01
8.767770000000000286e-01
8.759710000000000552e-01
8.751649999999999707e-01
8.719409999999999661e-01
8.800000000000000044e-01
8.735530000000000239e-01
8.695239999999999636e-01
8.791940000000000310e-01
8.751649999999999707e-01
8.775819999999999732e-01
8.767770000000000286e-01
8.759710000000000552e-01
8.767770000000000286e-01
8.767770000000000286e-01
8.759710000000000552e-01
8.767770000000000286e-01
8.759710000000000552e-01
8.751649999999999707e-01
8.743589999999999973e-01
8.662999999999999590e-01
8.727470000000000505e-01
8.743589999999999973e-01
8.775819999999999732e-01
8.783879999999999466e-01
8.767770000000000286e-01
8.775819999999999732e-01
8.743589999999999973e-01
8.783879999999999466e-01
8.783879999999999466e-01
8.775819999999999732e-01
8.791940000000000310e-01
8.767770000000000286e-01
8.800000000000000044e-01
8.775819999999999732e-01
8.767770000000000286e-01
8.767770000000000286e-01
8.743589999999999973e-01
8.727470000000000505e-01
8.735530000000000239e-01
8.808059999999999778e-01
8.759710000000000552e-01
8.767770000000000286e-01
8.808059999999999778e-01
8.775819999999999732e-01
8.791940000000000310e-01
8.783879999999999466e-01
8.791940000000000310e-01
8.808059999999999778e-01
8.856410000000000116e-01
8.800000000000000044e-01
8.824180000000000357e-01
8.775819999999999732e-01
8.783879999999999466e-01
8.800000000000000044e-01
8.767770000000000286e-01
8.791940000000000310e-01
8.816119999999999512e-01
8.800000000000000044e-01
8.800000000000000044e-01
8.775819999999999732e-01
8.791940000000000310e-01
8.775819999999999732e-01
8.759710000000000552e-01
8.800000000000000044e-01
8.832229999999999803e-01
8.775819999999999732e-01
8.783879999999999466e-01
8.791940000000000310e-01
8.791940000000000310e-01
8.735530000000000239e-01
8.800000000000000044e-01
8.775819999999999732e-01
8.751649999999999707e-01
8.743589999999999973e-01
8.759710000000000552e-01
8.800000000000000044e-01
8.767770000000000286e-01
8.791940000000000310e-01
8.783879999999999466e-01
8.759710000000000552e-01
8.791940000000000310e-01
8.743589999999999973e-01
8.759710000000000552e-01
8.751649999999999707e-01
8.800000000000000044e-01
8.816119999999999512e-01
8.767770000000000286e-01
8.759710000000000552e-01
8.759710000000000552e-01
8.767770000000000286e-01
8.783879999999999466e-01
8.791940000000000310e-01
8.775819999999999732e-01
8.759710000000000552e-01
8.759710000000000552e-01
8.767770000000000286e-01
8.791940000000000310e-01
8.767770000000000286e-01
8.783879999999999466e-01
8.800000000000000044e-01
8.759710000000000552e-01
8.800000000000000044e-01
8.791940000000000310e-01
8.783879999999999466e-01
8.767770000000000286e-01
8.775819999999999732e-01
8.743589999999999973e-01
8.816119999999999512e-01
8.800000000000000044e-01
8.832229999999999803e-01
8.791940000000000310e-01
8.775819999999999732e-01
8.824180000000000357e-01
8.775819999999999732e-01
8.808059999999999778e-01
8.775819999999999732e-01
8.808059999999999778e-01
8.743589999999999973e-01
8.751649999999999707e-01
8.783879999999999466e-01
8.783879999999999466e-01
8.751649999999999707e-01
8.808059999999999778e-01
8.791940000000000310e-01
8.808059999999999778e-01
8.767770000000000286e-01
8.808059999999999778e-01
8.800000000000000044e-01
8.775819999999999732e-01
8.727470000000000505e-01
8.767770000000000286e-01
8.767770000000000286e-01
8.800000000000000044e-01
8.775819999999999732e-01
8.791940000000000310e-01
8.759710000000000552e-01
8.751649999999999707e-01
8.800000000000000044e-01
8.775819999999999732e-01
8.767770000000000286e-01
8.800000000000000044e-01
8.743589999999999973e-01
8.767770000000000286e-01
8.775819999999999732e-01
8.832229999999999803e-01
8.816119999999999512e-01
8.791940000000000310e-01
8.783879999999999466e-01
8.864469999999999850e-01
8.808059999999999778e-01
8.791940000000000310e-01
8.767770000000000286e-01
8.824180000000000357e-01
8.824180000000000357e-01
8.791940000000000310e-01
8.808059999999999778e-01
8.816119999999999512e-01
8.783879999999999466e-01
8.856410000000000116e-01
8.848350000000000382e-01
8.880590000000000428e-01
8.856410000000000116e-01
8.904760000000000453e-01
8.872529999999999584e-01
8.872529999999999584e-01
8.856410000000000116e-01
8.864469999999999850e-01
8.896699999999999608e-01
8.880590000000000428e-01
8.864469999999999850e-01
8.832229999999999803e-01
8.832229999999999803e-01
8.840289999999999537e-01
8.824180000000000357e-01
8.832229999999999803e-01
8.824180000000000357e-01
8.808059999999999778e-01
8.800000000000000044e-01
8.816119999999999512e-01
8.816119999999999512e-01
8.808059999999999778e-01
8.783879999999999466e-01
8.767770000000000286e-01
8.751649999999999707e-01
8.791940000000000310e-01
8.759710000000000552e-01
8.791940000000000310e-01
8.808059999999999778e-01
8.816119999999999512e-01
8.751649999999999707e-01
8.816119999999999512e-01
8.767770000000000286e-01
8.711360000000000214e-01
8.783879999999999466e-01
8.791940000000000310e-01
8.783879999999999466e-01
8.775819999999999732e-01
8.775819999999999732e-01
8.800000000000000044e-01
8.759710000000000552e-01
8.727470000000000505e-01
8.775819999999999732e-01
8.727470000000000505e-01
8.751649999999999707e-01
8.767770000000000286e-01
8.767770000000000286e-01
8.727470000000000505e-01
8.767770000000000286e-01
8.743589999999999973e-01
8.501830000000000220e-01
8.743589999999999973e-01
8.808059999999999778e-01
8.743589999999999973e-01
8.791940000000000310e-01
8.703300000000000480e-01
8.695239999999999636e-01
8.662999999999999590e-01
8.767770000000000286e-01
8.880590000000000428e-01
9.057880000000000376e-01
9.202930000000000277e-01
9.356039999999999912e-01
9.565569999999999906e-01
9.662269999999999470e-01
9.791210000000000191e-01
9.895969999999999489e-01
9.823439999999999950e-01
9.436630000000000296e-01
8.961170000000000524e-01
8.582419999999999494e-01
8.453479999999999883e-01
8.276189999999999936e-01
8.155310000000000059e-01
8.252009999999999623e-01
8.276189999999999936e-01
8.348719999999999475e-01
8.380950000000000344e-01
8.413190000000000390e-01
8.509889999999999954e-01
8.606589999999999518e-01
8.542119999999999713e-01
8.582419999999999494e-01
8.679120000000000168e-01
8.735530000000000239e-01
8.719409999999999661e-01
8.848350000000000382e-01
8.824180000000000357e-01
8.856410000000000116e-01
8.880590000000000428e-01
8.872529999999999584e-01
8.864469999999999850e-01
8.888639999999999874e-01
8.888639999999999874e-01
8.864469999999999850e-01
8.880590000000000428e-01
8.961170000000000524e-01
8.920879999999999921e-01
8.896699999999999608e-01
8.945049999999999946e-01
8.928939999999999655e-01
8.937000000000000499e-01
8.904760000000000453e-01
8.937000000000000499e-01
8.928939999999999655e-01
8.945049999999999946e-01
8.969230000000000258e-01
8.961170000000000524e-01
8.969230000000000258e-01
8.945049999999999946e-01
8.969230000000000258e-01
8.920879999999999921e-01
8.977289999999999992e-01
8.985349999999999726e-01
8.928939999999999655e-01
8.993409999999999460e-01
8.985349999999999726e-01
9.017579999999999485e-01
9.033700000000000063e-01
9.017579999999999485e-01
9.033700000000000063e-01
9.001470000000000304e-01
9.017579999999999485e-01
9.041759999999999797e-01
9.057880000000000376e-01
9.073989999999999556e-01
9.138460000000000472e-01
9.049819999999999531e-01
9.057880000000000376e-01
9.090110000000000134e-01
9.082050000000000400e-01
9.049819999999999531e-01
9.186809999999999699e-01
9.154579999999999940e-01
9.162639999999999674e-01
9.194870000000000543e-01
9.162639999999999674e-01
9.162639999999999674e-01
9.243219999999999770e-01
9.235160000000000036e-01
9.251279999999999504e-01
9.227109999999999479e-01
9.275459999999999816e-01
9.283519999999999550e-01
9.275459999999999816e-01
9.291580000000000394e-01
9.307689999999999575e-01
9.323810000000000153e-01
9.307689999999999575e-01
9.380220000000000224e-01
9.372160000000000490e-01
9.420509999999999717e-01
9.404400000000000537e-01
9.380220000000000224e-01
9.396339999999999693e-01
9.372160000000000490e-01
9.396339999999999693e-01
9.420509999999999717e-01
9.380220000000000224e-01
9.356039999999999912e-01
9.388279999999999959e-01
9.307689999999999575e-01
9.267400000000000082e-01
9.315750000000000419e-01
9.251279999999999504e-01
9.291580000000000394e-01
9.219049999999999745e-01
9.202930000000000277e-01
9.146520000000000206e-01
9.106229999999999603e-01
9.057880000000000376e-01
9.057880000000000376e-01
9.025640000000000329e-01
9.033700000000000063e-01
8.985349999999999726e-01
8.969230000000000258e-01
8.953109999999999680e-01
8.920879999999999921e-01
8.928939999999999655e-01
8.904760000000000453e-01
8.880590000000000428e-01
8.888639999999999874e-01
8.864469999999999850e-01
8.840289999999999537e-01
8.832229999999999803e-01
8.848350000000000382e-01
8.800000000000000044e-01
8.783879999999999466e-01
8.800000000000000044e-01
8.800000000000000044e-01
8.791940000000000310e-01
8.800000000000000044e-01
8.808059999999999778e-01
8.800000000000000044e-01
8.791940000000000310e-01
8.783879999999999466e-01
8.751649999999999707e-01
8.743589999999999973e-01
8.824180000000000357e-01
8.783879999999999466e-01
8.759710000000000552e-01
8.783879999999999466e-01
8.791940000000000310e-01
8.735530000000000239e-01
8.767770000000000286e-01
8.743589999999999973e-01
8.743589999999999973e-01
8.816119999999999512e-01
8.791940000000000310e-01
8.783879999999999466e-01
8.824180000000000357e-01
8.767770000000000286e-01
8.783879999999999466e-01
8.783879999999999466e-01
8.783879999999999466e-01
8.783879999999999466e-01
8.783879999999999466e-01
8.759710000000000552e-01
8.824180000000000357e-01
8.767770000000000286e-01
8.767770000000000286e-01
8.775819999999999732e-01
8.743589999999999973e-01
8.800000000000000044e-01
8.816119999999999512e-01
8.800000000000000044e-01
8.800000000000000044e-01
8.816119999999999512e-01
8.791940000000000310e-01
8.775819999999999732e-01
8.775819999999999732e-01
8.791940000000000310e-01
8.767770000000000286e-01
8.783879999999999466e-01
8.824180000000000357e-01
8.808059999999999778e-01
8.824180000000000357e-01
8.791940000000000310e-01
8.791940000000000310e-01
8.800000000000000044e-01
8.783879999999999466e-01
8.791940000000000310e-01
8.791940000000000310e-01
8.816119999999999512e-01
8.880590000000000428e-01
8.808059999999999778e-01
8.791940000000000310e-01
8.800000000000000044e-01
8.791940000000000310e-01
8.840289999999999537e-01
8.832229999999999803e-01
8.808059999999999778e-01
8.808059999999999778e-01
8.808059999999999778e-01
8.824180000000000357e-01
8.824180000000000357e-01
8.816119999999999512e-01
8.816119999999999512e-01
8.816119999999999512e-01
8.856410000000000116e-01
8.808059999999999778e-01
8.832229999999999803e-01
8.791940000000000310e-01
8.791940000000000310e-01
8.848350000000000382e-01
8.824180000000000357e-01
8.848350000000000382e-01
8.832229999999999803e-01
8.791940000000000310e-01
8.832229999999999803e-01
8.800000000000000044e-01
8.824180000000000357e-01
8.832229999999999803e-01
8.840289999999999537e-01
8.767770000000000286e-01
8.775819999999999732e-01
8.783879999999999466e-01
8.824180000000000357e-01
8.848350000000000382e-01
8.775819999999999732e-01
8.808059999999999778e-01
8.832229999999999803e-01
8.808059999999999778e-01
8.816119999999999512e-01
8.775819999999999732e-01
8.808059999999999778e-01
8.727470000000000505e-01
8.759710000000000552e-01
8.759710000000000552e-01
8.800000000000000044e-01
8.783879999999999466e-01
8.832229999999999803e-01
8.783879999999999466e-01
8.848350000000000382e-01
8.816119999999999512e-01
8.791940000000000310e-01
8.759710000000000552e-01
8.832229999999999803e-01
8.800000000000000044e-01
8.824180000000000357e-01
8.775819999999999732e-01
8.840289999999999537e-01
8.783879999999999466e-01
8.783879999999999466e-01
8.759710000000000552e-01
8.800000000000000044e-01
8.808059999999999778e-01
8.791940000000000310e-01
8.791940000000000310e-01
8.767770000000000286e-01
8.791940000000000310e-01
8.767770000000000286e-01
8.767770000000000286e-01
8.783879999999999466e-01
8.767770000000000286e-01
8.783879999999999466e-01
8.824180000000000357e-01
8.791940000000000310e-01
8.816119999999999512e-01
8.759710000000000552e-01
8.808059999999999778e-01
8.767770000000000286e-01
8.800000000000000044e-01
8.727470000000000505e-01
8.791940000000000310e-01
8.808059999999999778e-01
8.840289999999999537e-01
8.783879999999999466e-01
8.808059999999999778e-01
8.791940000000000310e-01
8.848350000000000382e-01
8.864469999999999850e-01
8.848350000000000382e-01
8.840289999999999537e-01
8.800000000000000044e-01
8.856410000000000116e-01
8.864469999999999850e-01
8.872529999999999584e-01
8.872529999999999584e-01
8.896699999999999608e-01
8.880590000000000428e-01
8.904760000000000453e-01
8.888639999999999874e-01
8.880590000000000428e-01
8.880590000000000428e-01
8.880590000000000428e-01
8.856410000000000116e-01
8.824180000000000357e-01
8.888639999999999874e-01
8.856410000000000116e-01
8.848350000000000382e-01
8.824180000000000357e-01
8.800000000000000044e-01
8.767770000000000286e-01
8.791940000000000310e-01
8.767770000000000286e-01
8.840289999999999537e-01
8.808059999999999778e-01
8.767770000000000286e-01
8.800000000000000044e-01
8.791940000000000310e-01
8.783879999999999466e-01
8.783879999999999466e-01
8.743589999999999973e-01
8.783879999999999466e-01
8.816119999999999512e-01
8.695239999999999636e-01
8.775819999999999732e-01
8.783879999999999466e-01
8.743589999999999973e-01
8.800000000000000044e-01
8.775819999999999732e-01
8.751649999999999707e-01
8.751649999999999707e-01
8.735530000000000239e-01
8.767770000000000286e-01
8.783879999999999466e-01
8.727470000000000505e-01
8.775819999999999732e-01
8.775819999999999732e-01
8.767770000000000286e-01
8.743589999999999973e-01
8.751649999999999707e-01
8.791940000000000310e-01
8.759710000000000552e-01
8.751649999999999707e-01
8.735530000000000239e-01
8.751649999999999707e-01
8.751649999999999707e-01
8.662999999999999590e-01
8.711360000000000214e-01
8.638829999999999565e-01
8.687179999999999902e-01
8.775819999999999732e-01
8.888639999999999874e-01
9.025640000000000329e-01
9.251279999999999504e-01
9.347990000000000466e-01
9.493040000000000367e-01
9.630039999999999711e-01
9.758970000000000145e-01
9.863739999999999730e-01
9.815380000000000216e-01
9.549450000000000438e-01
8.945049999999999946e-01
8.679120000000000168e-01
8.445420000000000149e-01
8.324540000000000273e-01
8.243960000000000177e-01
8.219779999999999864e-01
8.292310000000000514e-01
8.429299999999999571e-01
8.348719999999999475e-01
8.445420000000000149e-01
8.493770000000000486e-01
8.550179999999999447e-01
8.566300000000000026e-01
8.630769999999999831e-01
8.614650000000000363e-01
8.695239999999999636e-01
8.775819999999999732e-01
8.800000000000000044e-01
8.832229999999999803e-01
8.856410000000000116e-01
8.856410000000000116e-01
8.880590000000000428e-01
8.808059999999999778e-01
8.864469999999999850e-01
8.840289999999999537e-01
8.848350000000000382e-01
8.872529999999999584e-01
8.880590000000000428e-01
8.896699999999999608e-01
8.872529999999999584e-01
8.896699999999999608e-01
8.872529999999999584e-01
8.912820000000000187e-01
8.937000000000000499e-01
8.953109999999999680e-01
8.904760000000000453e-01
8.920879999999999921e-01
8.920879999999999921e-01
8.961170000000000524e-01
8.945049999999999946e-01
8.920879999999999921e-01
8.985349999999999726e-01
8.937000000000000499e-01
9.001470000000000304e-01
8.985349999999999726e-01
8.977289999999999992e-01
8.953109999999999680e-01
8.993409999999999460e-01
9.009519999999999751e-01
9.049819999999999531e-01
9.049819999999999531e-01
9.065929999999999822e-01
9.009519999999999751e-01
9.033700000000000063e-01
9.017579999999999485e-01
9.065929999999999822e-01
9.009519999999999751e-01
9.090110000000000134e-01
9.057880000000000376e-01
9.033700000000000063e-01
9.057880000000000376e-01
9.082050000000000400e-01
9.090110000000000134e-01
9.122339999999999893e-01
9.114290000000000447e-01
9.138460000000000472e-01
9.106229999999999603e-01
9.259340000000000348e-01
9.202930000000000277e-01
9.210990000000000011e-01
9.210990000000000011e-01
9.210990000000000011e-01
9.251279999999999504e-01
9.251279999999999504e-01
9.243219999999999770e-01
9.267400000000000082e-01
9.243219999999999770e-01
9.291580000000000394e-01
9.331869999999999887e-01
9.364099999999999646e-01
9.339929999999999621e-01
9.404400000000000537e-01
9.323810000000000153e-01
9.372160000000000490e-01
9.372160000000000490e-01
9.364099999999999646e-01
9.339929999999999621e-01
9.380220000000000224e-01
9.412449999999999983e-01
9.347990000000000466e-01
9.347990000000000466e-01
9.283519999999999550e-01
9.315750000000000419e-01
9.347990000000000466e-01
9.299629999999999841e-01
9.235160000000000036e-01
9.194870000000000543e-01
9.210990000000000011e-01
9.170700000000000518e-01
9.122339999999999893e-01
9.057880000000000376e-01
9.049819999999999531e-01
9.049819999999999531e-01
9.025640000000000329e-01
8.961170000000000524e-01
8.977289999999999992e-01
8.953109999999999680e-01
8.928939999999999655e-01
8.896699999999999608e-01
8.896699999999999608e-01
8.832229999999999803e-01
8.872529999999999584e-01
8.832229999999999803e-01
8.856410000000000116e-01
8.800000000000000044e-01
8.791940000000000310e-01
8.791940000000000310e-01
8.767770000000000286e-01
8.783879999999999466e-01
8.759710000000000552e-01
8.808059999999999778e-01
8.751649999999999707e-01
8.800000000000000044e-01
8.791940000000000310e-01
8.727470000000000505e-01
8.791940000000000310e-01
8.759710000000000552e-01
8.800000000000000044e-01
8.767770000000000286e-01
8.735530000000000239e-01
8.775819999999999732e-01
8.735530000000000239e-01
8.759710000000000552e-01
8.767770000000000286e-01
8.735530000000000239e-01
8.775819999999999732e-01
8.727470000000000505e-01
8.759710000000000552e-01
8.743589999999999973e-01
8.751649999999999707e-01
8.735530000000000239e-01
8.719409999999999661e-01
8.743589999999999973e-01
8.767770000000000286e-01
8.727470000000000505e-01
8.735530000000000239e-01
8.783879999999999466e-01
8.751649999999999707e-01
8.791940000000000310e-01
8.719409999999999661e-01
8.727470000000000505e-01
8.743589999999999973e-01
8.767770000000000286e-01
8.759710000000000552e-01
8.759710000000000552e-01
8.759710000000000552e-01
8.743589999999999973e-01
8.703300000000000480e-01
8.687179999999999902e-01
8.743589999999999973e-01
8.751649999999999707e-01
8.759710000000000552e-01
8.735530000000000239e-01
8.735530000000000239e-01
8.735530000000000239e-01
8.783879999999999466e-01
8.727470000000000505e-01
8.743589999999999973e-01
8.711360000000000214e-01
8.751649999999999707e-01
8.783879999999999466e-01
8.791940000000000310e-01
8.759710000000000552e-01
8.711360000000000214e-01
8.759710000000000552e-01
8.783879999999999466e-01
8.767770000000000286e-01
8.727470000000000505e-01
8.743589999999999973e-01
8.824180000000000357e-01
8.791940000000000310e-01
8.832229999999999803e-01
8.759710000000000552e-01
8.800000000000000044e-01
8.783879999999999466e-01
8.808059999999999778e-01
8.775819999999999732e-01
8.767770000000000286e-01
8.775819999999999732e-01
8.816119999999999512e-01
8.791940000000000310e-01
8.824180000000000357e-01
8.759710000000000552e-01
8.783879999999999466e-01
8.791940000000000310e-01
8.759710000000000552e-01
8.800000000000000044e-01
8.767770000000000286e-01
8.783879999999999466e-01
8.816119999999999512e-01
8.791940000000000310e-01
8.751649999999999707e-01
8.800000000000000044e-01
8.800000000000000044e-01
8.791940000000000310e-01
8.735530000000000239e-01
8.791940000000000310e-01
8.791940000000000310e-01
8.800000000000000044e-01
8.759710000000000552e-01
8.775819999999999732e-01
8.751649999999999707e-01
8.767770000000000286e-01
8.783879999999999466e-01
8.791940000000000310e-01
8.783879999999999466e-01
8.759710000000000552e-01
8.840289999999999537e-01
8.800000000000000044e-01
8.791940000000000310e-01
8.783879999999999466e-01
8.775819999999999732e-01
8.775819999999999732e-01
8.775819999999999732e-01
8.791940000000000310e-01
8.800000000000000044e-01
8.687179999999999902e-01
8.775819999999999732e-01
8.759710000000000552e-01
8.912820000000000187e-01
8.759710000000000552e-01
8.775819999999999732e-01
8.727470000000000505e-01
8.816119999999999512e-01
8.816119999999999512e-01
8.743589999999999973e-01
8.800000000000000044e-01
8.775819999999999732e-01
8.743589999999999973e-01
8.759710000000000552e-01
8.791940000000000310e-01
8.751649999999999707e-01
8.808059999999999778e-01
8.767770000000000286e-01
8.759710000000000552e-01
8.791940000000000310e-01
8.735530000000000239e-01
8.759710000000000552e-01
8.791940000000000310e-01
8.759710000000000552e-01
8.727470000000000505e-01
8.759710000000000552e-01
8.759710000000000552e-01
8.751649999999999707e-01
8.824180000000000357e-01
8.808059999999999778e-01
8.759710000000000552e-01
8.751649999999999707e-01
8.759710000000000552e-01
8.735530000000000239e-01
8.767770000000000286e-01
8.767770000000000286e-01
8.791940000000000310e-01
8.767770000000000286e-01
8.735530000000000239e-01
8.759710000000000552e-01
8.759710000000000552e-01
8.791940000000000310e-01
8.727470000000000505e-01
8.783879999999999466e-01
8.759710000000000552e-01
8.775819999999999732e-01
8.751649999999999707e-01
8.848350000000000382e-01
8.791940000000000310e-01
8.832229999999999803e-01
8.808059999999999778e-01
8.832229999999999803e-01
8.856410000000000116e-01
8.856410000000000116e-01
8.888639999999999874e-01
8.880590000000000428e-01
8.864469999999999850e-01
8.759710000000000552e-01
8.872529999999999584e-01
8.888639999999999874e-01
8.848350000000000382e-01
8.840289999999999537e-01
8.832229999999999803e-01
8.832229999999999803e-01
8.824180000000000357e-01
8.800000000000000044e-01
8.808059999999999778e-01
8.824180000000000357e-01
8.800000000000000044e-01
8.791940000000000310e-01
8.816119999999999512e-01
8.759710000000000552e-01
8.751649999999999707e-01
8.775819999999999732e-01
8.775819999999999732e-01
8.743589999999999973e-01
8.743589999999999973e-01
8.800000000000000044e-01
8.735530000000000239e-01
8.783879999999999466e-01
8.775819999999999732e-01
8.767770000000000286e-01
8.783879999999999466e-01
8.791940000000000310e-01
8.767770000000000286e-01
8.751649999999999707e-01
8.743589999999999973e-01
8.759710000000000552e-01
8.735530000000000239e-01
8.743589999999999973e-01
8.735530000000000239e-01
8.743589999999999973e-01
8.759710000000000552e-01
8.711360000000000214e-01
8.751649999999999707e-01
8.735530000000000239e-01
8.743589999999999973e-01
8.687179999999999902e-01
8.711360000000000214e-01
8.735530000000000239e-01
8.719409999999999661e-01
8.719409999999999661e-01
8.703300000000000480e-01
8.671060000000000434e-01
8.687179999999999902e-01
8.654950000000000143e-01
8.638829999999999565e-01
8.679120000000000168e-01
8.775819999999999732e-01
8.880590000000000428e-01
9.017579999999999485e-01
9.267400000000000082e-01
9.412449999999999983e-01
9.517219999999999569e-01
9.638099999999999445e-01
9.767029999999999879e-01
9.855679999999999996e-01
9.863739999999999730e-01
9.452749999999999764e-01
8.896699999999999608e-01
8.590480000000000338e-01
8.389010000000000078e-01
8.268130000000000202e-01
8.163369999999999793e-01
8.203660000000000396e-01
8.292310000000000514e-01
8.324540000000000273e-01
8.397069999999999812e-01
8.437360000000000415e-01
8.526010000000000533e-01
8.517949999999999688e-01
8.542119999999999713e-01
8.614650000000000363e-01
8.671060000000000434e-01
8.671060000000000434e-01
8.767770000000000286e-01
8.800000000000000044e-01
8.832229999999999803e-01
8.856410000000000116e-01
8.832229999999999803e-01
8.832229999999999803e-01
8.848350000000000382e-01
8.864469999999999850e-01
8.824180000000000357e-01
8.864469999999999850e-01
8.856410000000000116e-01
8.904760000000000453e-01
8.848350000000000382e-01
8.864469999999999850e-01
8.872529999999999584e-01
8.904760000000000453e-01
8.888639999999999874e-01
8.920879999999999921e-01
8.888639999999999874e-01
8.912820000000000187e-01
8.920879999999999921e-01
8.920879999999999921e-01
8.993409999999999460e-01
8.928939999999999655e-01
8.928939999999999655e-01
8.953109999999999680e-01
8.945049999999999946e-01
8.920879999999999921e-01
8.937000000000000499e-01
8.977289999999999992e-01
8.928939999999999655e-01
8.993409999999999460e-01
8.977289999999999992e-01
8.985349999999999726e-01
9.009519999999999751e-01
9.001470000000000304e-01
8.985349999999999726e-01
8.961170000000000524e-01
9.025640000000000329e-01
9.041759999999999797e-01
9.049819999999999531e-01
9.017579999999999485e-01
9.041759999999999797e-01
9.049819999999999531e-01
9.073989999999999556e-01
9.090110000000000134e-01
9.098169999999999868e-01
9.154579999999999940e-01
9.098169999999999868e-01
9.090110000000000134e-01
9.122339999999999893e-01
9.122339999999999893e-01
9.130399999999999627e-01
9.146520000000000206e-01
9.162639999999999674e-01
9.178749999999999964e-01
9.227109999999999479e-01
9.219049999999999745e-01
9.251279999999999504e-01
9.243219999999999770e-01
9.283519999999999550e-01
9.291580000000000394e-01
9.299629999999999841e-01
9.339929999999999621e-01
9.339929999999999621e-01
9.347990000000000466e-01
9.372160000000000490e-01
9.339929999999999621e-01
9.380220000000000224e-01
9.331869999999999887e-01
9.331869999999999887e-01
9.364099999999999646e-01
9.307689999999999575e-01
9.364099999999999646e-01
9.307689999999999575e-01
9.388279999999999959e-01
9.460809999999999498e-01
9.291580000000000394e-01
9.339929999999999621e-01
9.235160000000000036e-01
9.243219999999999770e-01
9.194870000000000543e-01
9.146520000000000206e-01
9.106229999999999603e-01
9.082050000000000400e-01
9.090110000000000134e-01
9.065929999999999822e-01
9.009519999999999751e-01
8.961170000000000524e-01
8.961170000000000524e-01
8.928939999999999655e-01
8.864469999999999850e-01
8.896699999999999608e-01
8.888639999999999874e-01
8.872529999999999584e-01
8.816119999999999512e-01
8.791940000000000310e-01
8.759710000000000552e-01
8.816119999999999512e-01
8.791940000000000310e-01
8.775819999999999732e-01
8.800000000000000044e-01
8.791940000000000310e-01
8.727470000000000505e-01
8.703300000000000480e-01
8.695239999999999636e-01
8.719409999999999661e-01
8.719409999999999661e-01
8.751649999999999707e-01
8.767770000000000286e-01
8.775819999999999732e-01
8.735530000000000239e-01
8.711360000000000214e-01
8.735530000000000239e-01
8.775819999999999732e-01
8.735530000000000239e-01
8.735530000000000239e-01
8.759710000000000552e-01
8.735530000000000239e-01
8.711360000000000214e-01
8.703300000000000480e-01
8.751649999999999707e-01
8.759710000000000552e-01
8.735530000000000239e-01
8.767770000000000286e-01
8.727470000000000505e-01
8.743589999999999973e-01
8.743589999999999973e-01
8.711360000000000214e-01
8.719409999999999661e-01
8.719409999999999661e-01
8.727470000000000505e-01
8.751649999999999707e-01
8.735530000000000239e-01
8.735530000000000239e-01
8.743589999999999973e-01
8.800000000000000044e-01
8.759710000000000552e-01
8.775819999999999732e-01
8.759710000000000552e-01
8.767770000000000286e-01
8.735530000000000239e-01
8.727470000000000505e-01
8.711360000000000214e-01
8.743589999999999973e-01
8.751649999999999707e-01
8.743589999999999973e-01
8.743589999999999973e-01
8.775819999999999732e-01
8.775819999999999732e-01
8.767770000000000286e-01
8.735530000000000239e-01
8.751649999999999707e-01
8.767770000000000286e-01
8.735530000000000239e-01
8.767770000000000286e-01
8.775819999999999732e-01
8.775819999999999732e-01
8.767770000000000286e-01
8.767770000000000286e-01
8.775819999999999732e-01
8.767770000000000286e-01
8.791940000000000310e-01
8.759710000000000552e-01
8.767770000000000286e-01
8.767770000000000286e-01
8.783879999999999466e-01
8.743589999999999973e-01
8.791940000000000310e-01
8.751649999999999707e-01
8.767770000000000286e-01
8.751649999999999707e-01
8.791940000000000310e-01
8.727470000000000505e-01
8.735530000000000239e-01
8.767770000000000286e-01
8.816119999999999512e-01
8.759710000000000552e-01
8.759710000000000552e-01
8.743589999999999973e-01
8.767770000000000286e-01
8.743589999999999973e-01
8.743589999999999973e-01
8.872529999999999584e-01
8.767770000000000286e-01
8.864469999999999850e-01
8.751649999999999707e-01
8.783879999999999466e-01
8.751649999999999707e-01
8.743589999999999973e-01
8.783879999999999466e-01
8.767770000000000286e-01
8.727470000000000505e-01
8.775819999999999732e-01
8.808059999999999778e-01
8.816119999999999512e-01
8.800000000000000044e-01
8.727470000000000505e-01
8.791940000000000310e-01
8.759710000000000552e-01
8.751649999999999707e-01
8.743589999999999973e-01
8.775819999999999732e-01
8.783879999999999466e-01
8.767770000000000286e-01
8.775819999999999732e-01
8.743589999999999973e-01
8.743589999999999973e-01
8.711360000000000214e-01
8.743589999999999973e-01
8.775819999999999732e-01
8.743589999999999973e-01
8.775819999999999732e-01
8.800000000000000044e-01
8.791940000000000310e-01
8.759710000000000552e-01
8.751649999999999707e-01
8.735530000000000239e-01
8.767770000000000286e-01
8.542119999999999713e-01
8.751649999999999707e-01
8.735530000000000239e-01
8.783879999999999466e-01
8.743589999999999973e-01
8.767770000000000286e-01
8.743589999999999973e-01
8.759710000000000552e-01
8.735530000000000239e-01
8.703300000000000480e-01
8.735530000000000239e-01
8.775819999999999732e-01
8.735530000000000239e-01
8.735530000000000239e-01
8.727470000000000505e-01
8.727470000000000505e-01
8.759710000000000552e-01
8.751649999999999707e-01
8.791940000000000310e-01
8.751649999999999707e-01
8.743589999999999973e-01
8.783879999999999466e-01
8.719409999999999661e-01
8.719409999999999661e-01
8.751649999999999707e-01
8.727470000000000505e-01
8.727470000000000505e-01
8.767770000000000286e-01
8.751649999999999707e-01
8.775819999999999732e-01
8.727470000000000505e-01
8.735530000000000239e-01
8.775819999999999732e-01
8.759710000000000552e-01
8.775819999999999732e-01
8.759710000000000552e-01
8.759710000000000552e-01
8.727470000000000505e-01
8.775819999999999732e-01
8.824180000000000357e-01
8.767770000000000286e-01
8.775819999999999732e-01
8.783879999999999466e-01
8.791940000000000310e-01
8.800000000000000044e-01
8.743589999999999973e-01
8.783879999999999466e-01
8.800000000000000044e-01
8.800000000000000044e-01
8.808059999999999778e-01
8.791940000000000310e-01
8.783879999999999466e-01
8.872529999999999584e-01
8.848350000000000382e-01
8.832229999999999803e-01
8.864469999999999850e-01
8.840289999999999537e-01
8.848350000000000382e-01
8.872529999999999584e-01
8.832229999999999803e-01
8.840289999999999537e-01
8.832229999999999803e-01
8.840289999999999537e-01
8.759710000000000552e-01
8.848350000000000382e-01
8.783879999999999466e-01
8.832229999999999803e-01
8.767770000000000286e-01
8.759710000000000552e-01
8.743589999999999973e-01
8.767770000000000286e-01
8.783879999999999466e-01
8.928939999999999655e-01
8.735530000000000239e-01
8.751649999999999707e-01
8.759710000000000552e-01
8.759710000000000552e-01
8.775819999999999732e-01
8.727470000000000505e-01
8.791940000000000310e-01
8.727470000000000505e-01
8.719409999999999661e-01
8.743589999999999973e-01
8.719409999999999661e-01
8.783879999999999466e-01
8.735530000000000239e-01
8.767770000000000286e-01
8.735530000000000239e-01
8.743589999999999973e-01
8.735530000000000239e-01
8.751649999999999707e-01
8.727470000000000505e-01
8.743589999999999973e-01
8.735530000000000239e-01
8.711360000000000214e-01
8.735530000000000239e-01
8.711360000000000214e-01
8.735530000000000239e-01
8.695239999999999636e-01
8.719409999999999661e-01
8.695239999999999636e-01
8.735530000000000239e-01
8.679120000000000168e-01
8.671060000000000434e-01
8.671060000000000434e-01
8.662999999999999590e-01
8.646890000000000409e-01
8.679120000000000168e-01
8.783879999999999466e-01
8.969230000000000258e-01
9.114290000000000447e-01
9.283519999999999550e-01
9.468860000000000054e-01
9.541389999999999594e-01
9.646150000000000002e-01
9.807329999999999659e-01
9.863739999999999730e-01
9.678390000000000049e-01
9.259340000000000348e-01
8.832229999999999803e-01
8.485709999999999642e-01
8.356780000000000319e-01
8.187550000000000106e-01
8.147250000000000325e-01
8.147250000000000325e-01
8.187550000000000106e-01
8.300370000000000248e-01
8.413190000000000390e-01
8.421250000000000124e-01
8.509889999999999954e-01
8.534070000000000267e-01
8.534070000000000267e-01
8.582419999999999494e-01
8.622710000000000097e-01
8.695239999999999636e-01
8.751649999999999707e-01
8.775819999999999732e-01
8.800000000000000044e-01
8.824180000000000357e-01
8.800000000000000044e-01
8.816119999999999512e-01
8.840289999999999537e-01
8.832229999999999803e-01
8.824180000000000357e-01
8.856410000000000116e-01
8.832229999999999803e-01
8.848350000000000382e-01
8.912820000000000187e-01
8.896699999999999608e-01
8.864469999999999850e-01
8.904760000000000453e-01
8.912820000000000187e-01
8.888639999999999874e-01
8.928939999999999655e-01
8.896699999999999608e-01
8.880590000000000428e-01
8.945049999999999946e-01
8.912820000000000187e-01
8.904760000000000453e-01
8.904760000000000453e-01
8.928939999999999655e-01
8.928939999999999655e-01
8.937000000000000499e-01
8.961170000000000524e-01
8.945049999999999946e-01
8.969230000000000258e-01
9.001470000000000304e-01
8.953109999999999680e-01
9.041759999999999797e-01
8.953109999999999680e-01
8.977289999999999992e-01
9.025640000000000329e-01
9.025640000000000329e-01
9.033700000000000063e-01
9.025640000000000329e-01
9.082050000000000400e-01
9.065929999999999822e-01
9.017579999999999485e-01
9.057880000000000376e-01
9.082050000000000400e-01
9.073989999999999556e-01
9.122339999999999893e-01
9.098169999999999868e-01
9.106229999999999603e-01
9.090110000000000134e-01
9.130399999999999627e-01
9.154579999999999940e-01
9.154579999999999940e-01
9.186809999999999699e-01
9.186809999999999699e-01
9.210990000000000011e-01
9.202930000000000277e-01
9.275459999999999816e-01
9.275459999999999816e-01
9.283519999999999550e-01
9.315750000000000419e-01
9.219049999999999745e-01
9.347990000000000466e-01
9.315750000000000419e-01
9.323810000000000153e-01
9.323810000000000153e-01
9.339929999999999621e-01
9.396339999999999693e-01
9.331869999999999887e-01
9.372160000000000490e-01
9.356039999999999912e-01
9.347990000000000466e-01
9.372160000000000490e-01
9.356039999999999912e-01
9.339929999999999621e-01
9.372160000000000490e-01
9.331869999999999887e-01
9.339929999999999621e-01
9.283519999999999550e-01
9.259340000000000348e-01
9.194870000000000543e-01
9.186809999999999699e-01
9.130399999999999627e-01
9.146520000000000206e-01
9.130399999999999627e-01
9.090110000000000134e-01
9.009519999999999751e-01
8.985349999999999726e-01
8.985349999999999726e-01
8.953109999999999680e-01
8.920879999999999921e-01
8.872529999999999584e-01
8.864469999999999850e-01
8.872529999999999584e-01
8.816119999999999512e-01
8.824180000000000357e-01
8.864469999999999850e-01
8.832229999999999803e-01
8.816119999999999512e-01
8.735530000000000239e-01
8.848350000000000382e-01
8.767770000000000286e-01
8.791940000000000310e-01
8.783879999999999466e-01
8.767770000000000286e-01
8.735530000000000239e-01
8.727470000000000505e-01
8.791940000000000310e-01
8.727470000000000505e-01
8.767770000000000286e-01
8.759710000000000552e-01
8.735530000000000239e-01
8.703300000000000480e-01
8.751649999999999707e-01
8.767770000000000286e-01
8.759710000000000552e-01
8.719409999999999661e-01
8.735530000000000239e-01
8.743589999999999973e-01
8.727470000000000505e-01
8.719409999999999661e-01
8.743589999999999973e-01
8.727470000000000505e-01
8.727470000000000505e-01
8.743589999999999973e-01
8.727470000000000505e-01
8.703300000000000480e-01
8.791940000000000310e-01
8.711360000000000214e-01
8.759710000000000552e-01
8.727470000000000505e-01
8.751649999999999707e-01
8.735530000000000239e-01
8.735530000000000239e-01
8.759710000000000552e-01
8.759710000000000552e-01
8.703300000000000480e-01
8.727470000000000505e-01
8.711360000000000214e-01
8.759710000000000552e-01
8.759710000000000552e-01
8.767770000000000286e-01
8.735530000000000239e-01
8.751649999999999707e-01
8.743589999999999973e-01
8.727470000000000505e-01
8.767770000000000286e-01
8.759710000000000552e-01
8.743589999999999973e-01
8.743589999999999973e-01
8.735530000000000239e-01
8.775819999999999732e-01
8.767770000000000286e-01
8.743589999999999973e-01
8.743589999999999973e-01
8.735530000000000239e-01
8.743589999999999973e-01
8.775819999999999732e-01
8.816119999999999512e-01
8.775819999999999732e-01
8.767770000000000286e-01
8.727470000000000505e-01
8.751649999999999707e-01
8.783879999999999466e-01
8.735530000000000239e-01
8.751649999999999707e-01
8.783879999999999466e-01
8.775819999999999732e-01
8.775819999999999732e-01
8.727470000000000505e-01
8.751649999999999707e-01
8.759710000000000552e-01
8.767770000000000286e-01
8.800000000000000044e-01
8.783879999999999466e-01
8.767770000000000286e-01
8.791940000000000310e-01
8.783879999999999466e-01
8.775819999999999732e-01
8.783879999999999466e-01
8.791940000000000310e-01
8.791940000000000310e-01
8.743589999999999973e-01
8.767770000000000286e-01
8.743589999999999973e-01
8.695239999999999636e-01
8.816119999999999512e-01
8.759710000000000552e-01
8.751649999999999707e-01
8.791940000000000310e-01
8.759710000000000552e-01
8.767770000000000286e-01
8.759710000000000552e-01
8.800000000000000044e-01
8.759710000000000552e-01
8.767770000000000286e-01
8.775819999999999732e-01
8.743589999999999973e-01
8.783879999999999466e-01
8.751649999999999707e-01
8.767770000000000286e-01
8.759710000000000552e-01
8.767770000000000286e-01
8.767770000000000286e-01
8.808059999999999778e-01
8.751649999999999707e-01
8.759710000000000552e-01
8.759710000000000552e-01
8.759710000000000552e-01
8.751649999999999707e-01
8.791940000000000310e-01
8.759710000000000552e-01
8.743589999999999973e-01
8.783879999999999466e-01
8.767770000000000286e-01
8.783879999999999466e-01
8.775819999999999732e-01
8.824180000000000357e-01
8.767770000000000286e-01
8.743589999999999973e-01
8.759710000000000552e-01
8.759710000000000552e-01
8.775819999999999732e-01
8.743589999999999973e-01
8.759710000000000552e-01
8.743589999999999973e-01
8.759710000000000552e-01
8.735530000000000239e-01
8.727470000000000505e-01
8.767770000000000286e-01
8.816119999999999512e-01
8.767770000000000286e-01
8.767770000000000286e-01
8.759710000000000552e-01
8.775819999999999732e-01
8.727470000000000505e-01
8.735530000000000239e-01
8.791940000000000310e-01
8.743589999999999973e-01
8.735530000000000239e-01
8.759710000000000552e-01
8.735530000000000239e-01
8.751649999999999707e-01
8.751649999999999707e-01
8.759710000000000552e-01
8.791940000000000310e-01
8.743589999999999973e-01
8.687179999999999902e-01
8.767770000000000286e-01
8.767770000000000286e-01
8.727470000000000505e-01
8.775819999999999732e-01
8.751649999999999707e-01
8.775819999999999732e-01
8.783879999999999466e-01
8.751649999999999707e-01
8.703300000000000480e-01
8.759710000000000552e-01
8.808059999999999778e-01
8.759710000000000552e-01
8.816119999999999512e-01
8.767770000000000286e-01
8.832229999999999803e-01
8.751649999999999707e-01
8.759710000000000552e-01
8.743589999999999973e-01
8.735530000000000239e-01
8.767770000000000286e-01
8.727470000000000505e-01
8.711360000000000214e-01
8.759710000000000552e-01
8.775819999999999732e-01
8.751649999999999707e-01
8.751649999999999707e-01
8.783879999999999466e-01
8.759710000000000552e-01
8.800000000000000044e-01
8.816119999999999512e-01
