9.299629999999999841e-01
9.033700000000000063e-01
9.073989999999999556e-01
9.170700000000000518e-01
9.235160000000000036e-01
9.283519999999999550e-01
9.372160000000000490e-01
9.404400000000000537e-01
9.460809999999999498e-01
9.468860000000000054e-01
9.484979999999999523e-01
9.396339999999999693e-01
9.202930000000000277e-01
8.928939999999999655e-01
8.856410000000000116e-01
8.856410000000000116e-01
8.864469999999999850e-01
8.767770000000000286e-01
8.695239999999999636e-01
8.671060000000000434e-01
8.622710000000000097e-01
8.485709999999999642e-01
8.493770000000000486e-01
8.574359999999999760e-01
8.662999999999999590e-01
8.727470000000000505e-01
8.800000000000000044e-01
8.783879999999999466e-01
8.759710000000000552e-01
8.743589999999999973e-01
8.759710000000000552e-01
8.880590000000000428e-01
8.888639999999999874e-01
8.912820000000000187e-01
8.904760000000000453e-01
8.912820000000000187e-01
8.912820000000000187e-01
8.912820000000000187e-01
8.912820000000000187e-01
8.969230000000000258e-01
8.945049999999999946e-01
8.920879999999999921e-01
8.920879999999999921e-01
8.912820000000000187e-01
8.904760000000000453e-01
8.928939999999999655e-01
8.856410000000000116e-01
8.937000000000000499e-01
8.985349999999999726e-01
8.928939999999999655e-01
8.937000000000000499e-01
8.872529999999999584e-01
8.928939999999999655e-01
8.937000000000000499e-01
8.928939999999999655e-01
8.953109999999999680e-01
8.928939999999999655e-01
8.961170000000000524e-01
8.961170000000000524e-01
8.961170000000000524e-01
8.969230000000000258e-01
9.001470000000000304e-01
8.977289999999999992e-01
8.969230000000000258e-01
8.928939999999999655e-01
8.945049999999999946e-01
8.961170000000000524e-01
8.985349999999999726e-01
8.985349999999999726e-01
9.009519999999999751e-01
9.001470000000000304e-01
9.001470000000000304e-01
9.001470000000000304e-01
9.009519999999999751e-01
9.033700000000000063e-01
9.017579999999999485e-01
9.033700000000000063e-01
9.049819999999999531e-01
9.033700000000000063e-01
9.049819999999999531e-01
9.065929999999999822e-01
9.065929999999999822e-01
9.130399999999999627e-01
9.073989999999999556e-01
9.114290000000000447e-01
9.122339999999999893e-01
9.146520000000000206e-01
9.114290000000000447e-01
9.146520000000000206e-01
9.138460000000000472e-01
9.178749999999999964e-01
9.146520000000000206e-01
9.186809999999999699e-01
9.154579999999999940e-01
9.186809999999999699e-01
9.186809999999999699e-01
9.162639999999999674e-01
9.154579999999999940e-01
9.146520000000000206e-01
9.162639999999999674e-01
9.154579999999999940e-01
9.146520000000000206e-01
9.130399999999999627e-01
9.146520000000000206e-01
9.154579999999999940e-01
9.122339999999999893e-01
9.090110000000000134e-01
9.073989999999999556e-01
9.065929999999999822e-01
9.025640000000000329e-01
9.049819999999999531e-01
9.017579999999999485e-01
9.025640000000000329e-01
9.001470000000000304e-01
9.001470000000000304e-01
8.993409999999999460e-01
8.985349999999999726e-01
8.985349999999999726e-01
8.920879999999999921e-01
8.969230000000000258e-01
8.953109999999999680e-01
9.017579999999999485e-01
8.945049999999999946e-01
8.928939999999999655e-01
8.937000000000000499e-01
8.920879999999999921e-01
8.937000000000000499e-01
8.937000000000000499e-01
8.912820000000000187e-01
8.904760000000000453e-01
8.896699999999999608e-01
8.880590000000000428e-01
8.872529999999999584e-01
8.856410000000000116e-01
8.864469999999999850e-01
8.800000000000000044e-01
8.904760000000000453e-01
8.856410000000000116e-01
8.856410000000000116e-01
8.864469999999999850e-01
8.864469999999999850e-01
8.856410000000000116e-01
8.848350000000000382e-01
8.840289999999999537e-01
8.880590000000000428e-01
8.856410000000000116e-01
8.864469999999999850e-01
8.896699999999999608e-01
8.896699999999999608e-01
8.888639999999999874e-01
8.888639999999999874e-01
8.880590000000000428e-01
8.904760000000000453e-01
8.904760000000000453e-01
8.888639999999999874e-01
8.896699999999999608e-01
8.912820000000000187e-01
8.912820000000000187e-01
8.920879999999999921e-01
8.904760000000000453e-01
8.904760000000000453e-01
8.937000000000000499e-01
8.953109999999999680e-01
8.928939999999999655e-01
8.928939999999999655e-01
8.920879999999999921e-01
8.848350000000000382e-01
8.896699999999999608e-01
8.896699999999999608e-01
8.904760000000000453e-01
8.904760000000000453e-01
8.920879999999999921e-01
8.920879999999999921e-01
8.977289999999999992e-01
8.937000000000000499e-01
8.912820000000000187e-01
8.928939999999999655e-01
8.904760000000000453e-01
8.896699999999999608e-01
8.928939999999999655e-01
8.928939999999999655e-01
8.928939999999999655e-01
8.904760000000000453e-01
8.937000000000000499e-01
8.912820000000000187e-01
8.904760000000000453e-01
8.920879999999999921e-01
8.896699999999999608e-01
8.888639999999999874e-01
8.912820000000000187e-01
8.920879999999999921e-01
8.969230000000000258e-01
8.937000000000000499e-01
8.912820000000000187e-01
8.912820000000000187e-01
8.937000000000000499e-01
8.864469999999999850e-01
8.896699999999999608e-01
8.904760000000000453e-01
8.912820000000000187e-01
8.912820000000000187e-01
8.864469999999999850e-01
8.904760000000000453e-01
8.912820000000000187e-01
8.928939999999999655e-01
8.880590000000000428e-01
8.912820000000000187e-01
8.920879999999999921e-01
8.961170000000000524e-01
8.928939999999999655e-01
8.896699999999999608e-01
8.888639999999999874e-01
8.904760000000000453e-01
8.904760000000000453e-01
8.896699999999999608e-01
8.920879999999999921e-01
8.937000000000000499e-01
8.937000000000000499e-01
9.009519999999999751e-01
8.928939999999999655e-01
8.920879999999999921e-01
8.896699999999999608e-01
8.920879999999999921e-01
8.945049999999999946e-01
8.928939999999999655e-01
8.953109999999999680e-01
8.920879999999999921e-01
8.920879999999999921e-01
8.928939999999999655e-01
8.904760000000000453e-01
8.896699999999999608e-01
8.880590000000000428e-01
8.896699999999999608e-01
8.896699999999999608e-01
8.848350000000000382e-01
8.880590000000000428e-01
8.896699999999999608e-01
8.864469999999999850e-01
8.856410000000000116e-01
8.896699999999999608e-01
8.880590000000000428e-01
8.880590000000000428e-01
8.864469999999999850e-01
8.824180000000000357e-01
8.800000000000000044e-01
8.888639999999999874e-01
8.856410000000000116e-01
8.848350000000000382e-01
8.848350000000000382e-01
8.840289999999999537e-01
8.864469999999999850e-01
8.864469999999999850e-01
8.856410000000000116e-01
8.840289999999999537e-01
8.856410000000000116e-01
8.856410000000000116e-01
8.840289999999999537e-01
8.808059999999999778e-01
8.775819999999999732e-01
8.872529999999999584e-01
8.912820000000000187e-01
8.864469999999999850e-01
8.880590000000000428e-01
8.856410000000000116e-01
8.856410000000000116e-01
8.824180000000000357e-01
8.864469999999999850e-01
8.872529999999999584e-01
8.856410000000000116e-01
8.888639999999999874e-01
8.920879999999999921e-01
8.920879999999999921e-01
9.049819999999999531e-01
9.098169999999999868e-01
9.122339999999999893e-01
9.186809999999999699e-01
9.210990000000000011e-01
9.299629999999999841e-01
9.388279999999999959e-01
9.372160000000000490e-01
9.605860000000000509e-01
9.678390000000000049e-01
9.573629999999999640e-01
9.404400000000000537e-01
9.057880000000000376e-01
8.767770000000000286e-01
8.719409999999999661e-01
8.598529999999999784e-01
8.509889999999999954e-01
8.566300000000000026e-01
8.542119999999999713e-01
8.493770000000000486e-01
8.429299999999999571e-01
8.421250000000000124e-01
8.501830000000000220e-01
8.566300000000000026e-01
8.638829999999999565e-01
8.671060000000000434e-01
8.662999999999999590e-01
8.679120000000000168e-01
8.791940000000000310e-01
8.816119999999999512e-01
8.856410000000000116e-01
8.856410000000000116e-01
8.848350000000000382e-01
8.856410000000000116e-01
8.856410000000000116e-01
8.856410000000000116e-01
8.872529999999999584e-01
8.904760000000000453e-01
8.880590000000000428e-01
8.880590000000000428e-01
8.856410000000000116e-01
8.840289999999999537e-01
8.888639999999999874e-01
8.848350000000000382e-01
8.872529999999999584e-01
8.888639999999999874e-01
8.840289999999999537e-01
8.904760000000000453e-01
8.840289999999999537e-01
8.912820000000000187e-01
8.920879999999999921e-01
8.937000000000000499e-01
8.904760000000000453e-01
8.912820000000000187e-01
8.904760000000000453e-01
8.896699999999999608e-01
8.920879999999999921e-01
8.920879999999999921e-01
8.880590000000000428e-01
8.912820000000000187e-01
8.912820000000000187e-01
8.937000000000000499e-01
8.945049999999999946e-01
8.904760000000000453e-01
8.945049999999999946e-01
8.969230000000000258e-01
8.977289999999999992e-01
8.961170000000000524e-01
8.904760000000000453e-01
8.977289999999999992e-01
8.969230000000000258e-01
9.057880000000000376e-01
8.985349999999999726e-01
8.985349999999999726e-01
9.001470000000000304e-01
9.001470000000000304e-01
8.993409999999999460e-01
9.041759999999999797e-01
9.025640000000000329e-01
9.033700000000000063e-01
9.033700000000000063e-01
9.033700000000000063e-01
9.057880000000000376e-01
9.090110000000000134e-01
9.106229999999999603e-01
9.090110000000000134e-01
9.122339999999999893e-01
9.114290000000000447e-01
9.106229999999999603e-01
9.130399999999999627e-01
9.114290000000000447e-01
9.154579999999999940e-01
9.122339999999999893e-01
9.090110000000000134e-01
9.162639999999999674e-01
9.138460000000000472e-01
9.138460000000000472e-01
9.130399999999999627e-01
9.114290000000000447e-01
9.122339999999999893e-01
9.122339999999999893e-01
9.130399999999999627e-01
9.090110000000000134e-01
9.090110000000000134e-01
9.098169999999999868e-01
9.090110000000000134e-01
9.065929999999999822e-01
9.065929999999999822e-01
9.049819999999999531e-01
9.041759999999999797e-01
9.025640000000000329e-01
9.001470000000000304e-01
8.985349999999999726e-01
9.001470000000000304e-01
8.985349999999999726e-01
8.953109999999999680e-01
8.937000000000000499e-01
8.945049999999999946e-01
8.961170000000000524e-01
8.961170000000000524e-01
8.928939999999999655e-01
8.920879999999999921e-01
8.904760000000000453e-01
8.904760000000000453e-01
8.920879999999999921e-01
8.920879999999999921e-01
8.888639999999999874e-01
8.888639999999999874e-01
8.872529999999999584e-01
8.864469999999999850e-01
8.840289999999999537e-01
8.848350000000000382e-01
8.864469999999999850e-01
8.880590000000000428e-01
8.872529999999999584e-01
8.864469999999999850e-01
8.856410000000000116e-01
8.856410000000000116e-01
8.872529999999999584e-01
8.848350000000000382e-01
8.840289999999999537e-01
8.832229999999999803e-01
8.816119999999999512e-01
8.864469999999999850e-01
8.872529999999999584e-01
8.816119999999999512e-01
8.856410000000000116e-01
8.864469999999999850e-01
8.840289999999999537e-01
8.864469999999999850e-01
8.888639999999999874e-01
8.864469999999999850e-01
8.872529999999999584e-01
8.864469999999999850e-01
8.880590000000000428e-01
8.864469999999999850e-01
8.880590000000000428e-01
8.880590000000000428e-01
8.872529999999999584e-01
8.880590000000000428e-01
8.856410000000000116e-01
8.896699999999999608e-01
8.880590000000000428e-01
8.904760000000000453e-01
8.888639999999999874e-01
8.904760000000000453e-01
8.904760000000000453e-01
8.920879999999999921e-01
8.872529999999999584e-01
8.880590000000000428e-01
8.904760000000000453e-01
8.953109999999999680e-01
8.888639999999999874e-01
8.880590000000000428e-01
8.880590000000000428e-01
8.888639999999999874e-01
8.856410000000000116e-01
8.912820000000000187e-01
8.912820000000000187e-01
8.904760000000000453e-01
8.856410000000000116e-01
8.920879999999999921e-01
8.888639999999999874e-01
8.896699999999999608e-01
8.880590000000000428e-01
8.904760000000000453e-01
8.888639999999999874e-01
8.888639999999999874e-01
8.904760000000000453e-01
8.912820000000000187e-01
8.888639999999999874e-01
8.928939999999999655e-01
8.888639999999999874e-01
8.920879999999999921e-01
8.904760000000000453e-01
8.928939999999999655e-01
8.904760000000000453e-01
8.920879999999999921e-01
8.928939999999999655e-01
8.928939999999999655e-01
8.888639999999999874e-01
8.888639999999999874e-01
8.888639999999999874e-01
8.896699999999999608e-01
8.888639999999999874e-01
8.904760000000000453e-01
8.912820000000000187e-01
8.912820000000000187e-01
8.872529999999999584e-01
8.904760000000000453e-01
8.896699999999999608e-01
8.880590000000000428e-01
8.928939999999999655e-01
8.920879999999999921e-01
8.920879999999999921e-01
8.880590000000000428e-01
8.937000000000000499e-01
8.937000000000000499e-01
8.912820000000000187e-01
8.904760000000000453e-01
8.945049999999999946e-01
8.912820000000000187e-01
8.937000000000000499e-01
8.937000000000000499e-01
8.928939999999999655e-01
8.928939999999999655e-01
8.896699999999999608e-01
8.904760000000000453e-01
8.888639999999999874e-01
8.864469999999999850e-01
8.872529999999999584e-01
8.864469999999999850e-01
8.856410000000000116e-01
8.840289999999999537e-01
8.848350000000000382e-01
8.864469999999999850e-01
8.872529999999999584e-01
8.824180000000000357e-01
8.872529999999999584e-01
8.872529999999999584e-01
8.872529999999999584e-01
8.872529999999999584e-01
8.848350000000000382e-01
8.840289999999999537e-01
8.864469999999999850e-01
8.872529999999999584e-01
8.840289999999999537e-01
8.880590000000000428e-01
8.848350000000000382e-01
8.856410000000000116e-01
8.880590000000000428e-01
8.864469999999999850e-01
8.872529999999999584e-01
8.872529999999999584e-01
8.888639999999999874e-01
8.880590000000000428e-01
8.880590000000000428e-01
8.888639999999999874e-01
8.864469999999999850e-01
8.888639999999999874e-01
8.912820000000000187e-01
8.856410000000000116e-01
8.840289999999999537e-01
8.856410000000000116e-01
8.912820000000000187e-01
8.880590000000000428e-01
8.848350000000000382e-01
8.824180000000000357e-01
8.864469999999999850e-01
8.880590000000000428e-01
8.953109999999999680e-01
9.017579999999999485e-01
9.082050000000000400e-01
9.114290000000000447e-01
9.227109999999999479e-01
9.291580000000000394e-01
9.323810000000000153e-01
9.347990000000000466e-01
9.557510000000000172e-01
9.662269999999999470e-01
9.702560000000000073e-01
9.525270000000000126e-01
9.186809999999999699e-01
8.872529999999999584e-01
8.775819999999999732e-01
8.638829999999999565e-01
8.638829999999999565e-01
8.606589999999999518e-01
8.598529999999999784e-01
8.534070000000000267e-01
8.445420000000000149e-01
8.405129999999999546e-01
8.421250000000000124e-01
8.542119999999999713e-01
8.606589999999999518e-01
8.646890000000000409e-01
8.630769999999999831e-01
8.638829999999999565e-01
8.671060000000000434e-01
8.703300000000000480e-01
8.832229999999999803e-01
8.840289999999999537e-01
8.832229999999999803e-01
8.872529999999999584e-01
8.848350000000000382e-01
8.840289999999999537e-01
8.840289999999999537e-01
8.856410000000000116e-01
8.912820000000000187e-01
8.880590000000000428e-01
8.872529999999999584e-01
8.856410000000000116e-01
8.888639999999999874e-01
8.848350000000000382e-01
8.856410000000000116e-01
8.904760000000000453e-01
8.896699999999999608e-01
8.880590000000000428e-01
8.904760000000000453e-01
8.896699999999999608e-01
8.880590000000000428e-01
8.920879999999999921e-01
8.920879999999999921e-01
8.912820000000000187e-01
8.904760000000000453e-01
8.864469999999999850e-01
8.937000000000000499e-01
8.912820000000000187e-01
8.904760000000000453e-01
8.937000000000000499e-01
8.920879999999999921e-01
8.912820000000000187e-01
8.937000000000000499e-01
8.953109999999999680e-01
8.880590000000000428e-01
8.937000000000000499e-01
8.953109999999999680e-01
8.945049999999999946e-01
8.977289999999999992e-01
8.937000000000000499e-01
9.009519999999999751e-01
8.969230000000000258e-01
8.985349999999999726e-01
8.977289999999999992e-01
9.009519999999999751e-01
8.985349999999999726e-01
9.009519999999999751e-01
9.009519999999999751e-01
9.041759999999999797e-01
9.025640000000000329e-01
9.033700000000000063e-01
9.041759999999999797e-01
9.073989999999999556e-01
9.073989999999999556e-01
9.098169999999999868e-01
9.098169999999999868e-01
9.098169999999999868e-01
9.106229999999999603e-01
9.138460000000000472e-01
9.130399999999999627e-01
9.122339999999999893e-01
9.146520000000000206e-01
9.146520000000000206e-01
9.170700000000000518e-01
9.178749999999999964e-01
9.170700000000000518e-01
9.130399999999999627e-01
9.146520000000000206e-01
9.130399999999999627e-01
9.162639999999999674e-01
9.114290000000000447e-01
9.122339999999999893e-01
9.130399999999999627e-01
9.082050000000000400e-01
9.090110000000000134e-01
9.122339999999999893e-01
9.065929999999999822e-01
9.065929999999999822e-01
9.041759999999999797e-01
9.049819999999999531e-01
9.033700000000000063e-01
9.057880000000000376e-01
9.057880000000000376e-01
9.009519999999999751e-01
8.993409999999999460e-01
8.945049999999999946e-01
9.073989999999999556e-01
8.961170000000000524e-01
8.896699999999999608e-01
8.969230000000000258e-01
8.953109999999999680e-01
8.920879999999999921e-01
8.904760000000000453e-01
8.904760000000000453e-01
8.904760000000000453e-01
8.872529999999999584e-01
8.880590000000000428e-01
8.872529999999999584e-01
8.880590000000000428e-01
8.920879999999999921e-01
8.872529999999999584e-01
8.840289999999999537e-01
8.832229999999999803e-01
8.856410000000000116e-01
8.856410000000000116e-01
8.832229999999999803e-01
8.832229999999999803e-01
8.880590000000000428e-01
8.832229999999999803e-01
8.840289999999999537e-01
8.856410000000000116e-01
8.856410000000000116e-01
8.848350000000000382e-01
8.848350000000000382e-01
8.840289999999999537e-01
8.832229999999999803e-01
8.848350000000000382e-01
8.888639999999999874e-01
8.848350000000000382e-01
8.864469999999999850e-01
8.832229999999999803e-01
8.808059999999999778e-01
8.848350000000000382e-01
8.848350000000000382e-01
8.888639999999999874e-01
8.864469999999999850e-01
8.856410000000000116e-01
8.864469999999999850e-01
8.872529999999999584e-01
8.880590000000000428e-01
8.896699999999999608e-01
8.872529999999999584e-01
8.872529999999999584e-01
8.832229999999999803e-01
8.864469999999999850e-01
8.864469999999999850e-01
8.864469999999999850e-01
8.872529999999999584e-01
8.880590000000000428e-01
8.864469999999999850e-01
8.872529999999999584e-01
8.880590000000000428e-01
8.904760000000000453e-01
8.888639999999999874e-01
8.864469999999999850e-01
8.840289999999999537e-01
8.880590000000000428e-01
8.816119999999999512e-01
8.864469999999999850e-01
8.872529999999999584e-01
8.872529999999999584e-01
8.896699999999999608e-01
8.832229999999999803e-01
8.872529999999999584e-01
8.872529999999999584e-01
8.872529999999999584e-01
8.848350000000000382e-01
8.872529999999999584e-01
8.880590000000000428e-01
8.888639999999999874e-01
8.912820000000000187e-01
8.856410000000000116e-01
8.872529999999999584e-01
8.872529999999999584e-01
8.896699999999999608e-01
8.848350000000000382e-01
8.856410000000000116e-01
8.872529999999999584e-01
8.888639999999999874e-01
8.928939999999999655e-01
8.880590000000000428e-01
8.864469999999999850e-01
8.904760000000000453e-01
8.880590000000000428e-01
8.888639999999999874e-01
8.880590000000000428e-01
8.856410000000000116e-01
8.872529999999999584e-01
8.928939999999999655e-01
8.904760000000000453e-01
8.880590000000000428e-01
8.864469999999999850e-01
8.832229999999999803e-01
8.864469999999999850e-01
8.888639999999999874e-01
8.872529999999999584e-01
8.864469999999999850e-01
8.896699999999999608e-01
8.880590000000000428e-01
8.920879999999999921e-01
8.904760000000000453e-01
8.912820000000000187e-01
8.888639999999999874e-01
8.856410000000000116e-01
8.880590000000000428e-01
8.920879999999999921e-01
8.888639999999999874e-01
8.864469999999999850e-01
8.888639999999999874e-01
8.904760000000000453e-01
8.880590000000000428e-01
8.856410000000000116e-01
8.864469999999999850e-01
8.848350000000000382e-01
8.824180000000000357e-01
8.824180000000000357e-01
8.824180000000000357e-01
8.840289999999999537e-01
8.767770000000000286e-01
8.840289999999999537e-01
8.856410000000000116e-01
8.808059999999999778e-01
8.824180000000000357e-01
8.816119999999999512e-01
8.824180000000000357e-01
8.824180000000000357e-01
8.816119999999999512e-01
8.864469999999999850e-01
8.800000000000000044e-01
8.832229999999999803e-01
8.800000000000000044e-01
8.808059999999999778e-01
8.824180000000000357e-01
8.808059999999999778e-01
8.832229999999999803e-01
8.856410000000000116e-01
8.808059999999999778e-01
8.816119999999999512e-01
8.816119999999999512e-01
8.800000000000000044e-01
8.767770000000000286e-01
8.808059999999999778e-01
8.816119999999999512e-01
8.816119999999999512e-01
8.808059999999999778e-01
8.840289999999999537e-01
8.808059999999999778e-01
8.840289999999999537e-01
8.816119999999999512e-01
8.896699999999999608e-01
8.824180000000000357e-01
8.808059999999999778e-01
8.824180000000000357e-01
8.767770000000000286e-01
8.824180000000000357e-01
8.904760000000000453e-01
8.977289999999999992e-01
9.049819999999999531e-01
9.122339999999999893e-01
9.186809999999999699e-01
9.243219999999999770e-01
9.219049999999999745e-01
9.372160000000000490e-01
9.493040000000000367e-01
9.670330000000000314e-01
9.581680000000000197e-01
9.380220000000000224e-01
9.122339999999999893e-01
8.816119999999999512e-01
8.719409999999999661e-01
8.646890000000000409e-01
8.598529999999999784e-01
8.534070000000000267e-01
8.550179999999999447e-01
8.421250000000000124e-01
8.429299999999999571e-01
8.356780000000000319e-01
8.389010000000000078e-01
8.517949999999999688e-01
8.614650000000000363e-01
8.598529999999999784e-01
8.590480000000000338e-01
8.598529999999999784e-01
8.638829999999999565e-01
8.791940000000000310e-01
8.800000000000000044e-01
8.775819999999999732e-01
8.808059999999999778e-01
8.896699999999999608e-01
8.808059999999999778e-01
8.840289999999999537e-01
8.856410000000000116e-01
8.832229999999999803e-01
8.840289999999999537e-01
8.816119999999999512e-01
8.808059999999999778e-01
8.864469999999999850e-01
8.816119999999999512e-01
8.840289999999999537e-01
8.856410000000000116e-01
8.824180000000000357e-01
8.824180000000000357e-01
8.840289999999999537e-01
8.848350000000000382e-01
8.832229999999999803e-01
8.848350000000000382e-01
8.856410000000000116e-01
8.872529999999999584e-01
8.856410000000000116e-01
8.848350000000000382e-01
8.896699999999999608e-01
8.856410000000000116e-01
8.856410000000000116e-01
8.880590000000000428e-01
8.816119999999999512e-01
8.888639999999999874e-01
8.872529999999999584e-01
8.904760000000000453e-01
8.928939999999999655e-01
8.928939999999999655e-01
8.912820000000000187e-01
8.888639999999999874e-01
8.912820000000000187e-01
9.001470000000000304e-01
8.928939999999999655e-01
8.912820000000000187e-01
8.945049999999999946e-01
8.872529999999999584e-01
8.928939999999999655e-01
8.993409999999999460e-01
8.961170000000000524e-01
9.009519999999999751e-01
8.977289999999999992e-01
8.969230000000000258e-01
8.985349999999999726e-01
8.985349999999999726e-01
8.961170000000000524e-01
9.025640000000000329e-01
9.033700000000000063e-01
9.073989999999999556e-01
9.090110000000000134e-01
9.106229999999999603e-01
9.082050000000000400e-01
9.114290000000000447e-01
9.114290000000000447e-01
9.114290000000000447e-01
9.090110000000000134e-01
9.082050000000000400e-01
9.106229999999999603e-01
9.138460000000000472e-01
9.106229999999999603e-01
9.098169999999999868e-01
9.073989999999999556e-01
9.106229999999999603e-01
9.090110000000000134e-01
9.082050000000000400e-01
9.073989999999999556e-01
9.073989999999999556e-01
9.057880000000000376e-01
9.065929999999999822e-01
9.017579999999999485e-01
9.098169999999999868e-01
9.001470000000000304e-01
8.993409999999999460e-01
8.961170000000000524e-01
9.009519999999999751e-01
8.993409999999999460e-01
8.969230000000000258e-01
8.969230000000000258e-01
8.953109999999999680e-01
8.953109999999999680e-01
8.904760000000000453e-01
8.961170000000000524e-01
8.920879999999999921e-01
8.872529999999999584e-01
8.824180000000000357e-01
8.872529999999999584e-01
8.880590000000000428e-01
8.816119999999999512e-01
8.840289999999999537e-01
8.864469999999999850e-01
8.864469999999999850e-01
8.832229999999999803e-01
8.848350000000000382e-01
8.856410000000000116e-01
8.840289999999999537e-01
8.824180000000000357e-01
8.808059999999999778e-01
8.832229999999999803e-01
8.824180000000000357e-01
8.808059999999999778e-01
8.832229999999999803e-01
8.840289999999999537e-01
8.808059999999999778e-01
8.800000000000000044e-01
8.816119999999999512e-01
8.791940000000000310e-01
8.816119999999999512e-01
8.816119999999999512e-01
8.783879999999999466e-01
8.816119999999999512e-01
8.832229999999999803e-01
8.832229999999999803e-01
8.808059999999999778e-01
8.808059999999999778e-01
8.800000000000000044e-01
8.856410000000000116e-01
8.816119999999999512e-01
8.816119999999999512e-01
8.840289999999999537e-01
8.832229999999999803e-01
8.824180000000000357e-01
8.808059999999999778e-01
8.864469999999999850e-01
8.856410000000000116e-01
8.824180000000000357e-01
8.824180000000000357e-01
8.848350000000000382e-01
8.848350000000000382e-01
8.856410000000000116e-01
8.832229999999999803e-01
8.848350000000000382e-01
8.832229999999999803e-01
8.808059999999999778e-01
8.840289999999999537e-01
8.856410000000000116e-01
8.824180000000000357e-01
8.848350000000000382e-01
8.840289999999999537e-01
8.832229999999999803e-01
8.824180000000000357e-01
8.832229999999999803e-01
8.832229999999999803e-01
8.856410000000000116e-01
8.824180000000000357e-01
8.824180000000000357e-01
8.848350000000000382e-01
8.856410000000000116e-01
8.848350000000000382e-01
8.856410000000000116e-01
8.864469999999999850e-01
8.872529999999999584e-01
8.888639999999999874e-01
8.832229999999999803e-01
8.848350000000000382e-01
8.751649999999999707e-01
8.832229999999999803e-01
8.848350000000000382e-01
8.872529999999999584e-01
8.848350000000000382e-01
8.856410000000000116e-01
8.864469999999999850e-01
8.864469999999999850e-01
8.856410000000000116e-01
8.856410000000000116e-01
8.808059999999999778e-01
8.808059999999999778e-01
8.848350000000000382e-01
8.824180000000000357e-01
8.840289999999999537e-01
8.864469999999999850e-01
8.896699999999999608e-01
8.928939999999999655e-01
8.856410000000000116e-01
8.888639999999999874e-01
8.848350000000000382e-01
8.864469999999999850e-01
8.888639999999999874e-01
8.864469999999999850e-01
8.872529999999999584e-01
8.856410000000000116e-01
8.816119999999999512e-01
8.832229999999999803e-01
8.824180000000000357e-01
8.800000000000000044e-01
8.816119999999999512e-01
8.880590000000000428e-01
8.864469999999999850e-01
8.864469999999999850e-01
8.840289999999999537e-01
8.856410000000000116e-01
8.872529999999999584e-01
8.864469999999999850e-01
8.872529999999999584e-01
8.856410000000000116e-01
8.856410000000000116e-01
8.840289999999999537e-01
8.856410000000000116e-01
8.840289999999999537e-01
8.824180000000000357e-01
8.856410000000000116e-01
8.840289999999999537e-01
8.832229999999999803e-01
8.759710000000000552e-01
8.824180000000000357e-01
8.800000000000000044e-01
8.775819999999999732e-01
8.800000000000000044e-01
8.800000000000000044e-01
8.783879999999999466e-01
8.775819999999999732e-01
8.791940000000000310e-01
8.775819999999999732e-01
8.800000000000000044e-01
8.808059999999999778e-01
8.840289999999999537e-01
8.856410000000000116e-01
8.824180000000000357e-01
8.783879999999999466e-01
8.816119999999999512e-01
8.848350000000000382e-01
8.800000000000000044e-01
8.808059999999999778e-01
8.816119999999999512e-01
8.783879999999999466e-01
8.791940000000000310e-01
8.808059999999999778e-01
8.800000000000000044e-01
8.816119999999999512e-01
8.872529999999999584e-01
8.808059999999999778e-01
8.791940000000000310e-01
8.800000000000000044e-01
8.800000000000000044e-01
8.775819999999999732e-01
8.791940000000000310e-01
8.800000000000000044e-01
8.832229999999999803e-01
8.775819999999999732e-01
8.808059999999999778e-01
8.791940000000000310e-01
8.800000000000000044e-01
8.775819999999999732e-01
8.808059999999999778e-01
8.840289999999999537e-01
8.832229999999999803e-01
8.953109999999999680e-01
9.065929999999999822e-01
9.130399999999999627e-01
9.194870000000000543e-01
9.259340000000000348e-01
9.291580000000000394e-01
9.356039999999999912e-01
9.452749999999999764e-01
9.533329999999999860e-01
9.428569999999999451e-01
9.202930000000000277e-01
8.920879999999999921e-01
8.816119999999999512e-01
8.775819999999999732e-01
8.711360000000000214e-01
8.662999999999999590e-01
8.574359999999999760e-01
8.558240000000000292e-01
8.501830000000000220e-01
8.413190000000000390e-01
8.332600000000000007e-01
8.389010000000000078e-01
8.526010000000000533e-01
8.574359999999999760e-01
8.614650000000000363e-01
8.630769999999999831e-01
8.630769999999999831e-01
8.598529999999999784e-01
8.727470000000000505e-01
8.775819999999999732e-01
8.791940000000000310e-01
8.808059999999999778e-01
8.767770000000000286e-01
8.800000000000000044e-01
8.751649999999999707e-01
8.791940000000000310e-01
8.791940000000000310e-01
8.808059999999999778e-01
8.791940000000000310e-01
8.856410000000000116e-01
8.816119999999999512e-01
8.791940000000000310e-01
8.800000000000000044e-01
8.800000000000000044e-01
8.856410000000000116e-01
8.800000000000000044e-01
8.783879999999999466e-01
8.824180000000000357e-01
8.824180000000000357e-01
8.816119999999999512e-01
8.824180000000000357e-01
8.840289999999999537e-01
8.856410000000000116e-01
8.856410000000000116e-01
8.864469999999999850e-01
8.840289999999999537e-01
8.856410000000000116e-01
8.840289999999999537e-01
8.824180000000000357e-01
8.816119999999999512e-01
8.840289999999999537e-01
8.832229999999999803e-01
8.872529999999999584e-01
8.872529999999999584e-01
8.888639999999999874e-01
8.816119999999999512e-01
8.775819999999999732e-01
8.880590000000000428e-01
8.896699999999999608e-01
8.969230000000000258e-01
8.920879999999999921e-01
8.920879999999999921e-01
8.937000000000000499e-01
8.937000000000000499e-01
8.985349999999999726e-01
8.945049999999999946e-01
8.961170000000000524e-01
8.953109999999999680e-01
8.937000000000000499e-01
8.961170000000000524e-01
8.985349999999999726e-01
8.985349999999999726e-01
9.001470000000000304e-01
8.993409999999999460e-01
8.985349999999999726e-01
9.025640000000000329e-01
9.090110000000000134e-01
9.057880000000000376e-01
9.033700000000000063e-01
9.041759999999999797e-01
9.033700000000000063e-01
9.065929999999999822e-01
9.073989999999999556e-01
9.090110000000000134e-01
9.065929999999999822e-01
9.065929999999999822e-01
9.057880000000000376e-01
9.009519999999999751e-01
9.049819999999999531e-01
9.033700000000000063e-01
9.033700000000000063e-01
9.017579999999999485e-01
9.009519999999999751e-01
9.033700000000000063e-01
8.969230000000000258e-01
8.945049999999999946e-01
8.985349999999999726e-01
8.969230000000000258e-01
8.961170000000000524e-01
8.969230000000000258e-01
8.920879999999999921e-01
8.953109999999999680e-01
8.904760000000000453e-01
8.928939999999999655e-01
8.872529999999999584e-01
8.896699999999999608e-01
8.848350000000000382e-01
8.880590000000000428e-01
8.864469999999999850e-01
8.848350000000000382e-01
8.832229999999999803e-01
8.783879999999999466e-01
8.840289999999999537e-01
8.824180000000000357e-01
8.848350000000000382e-01
8.824180000000000357e-01
8.800000000000000044e-01
8.791940000000000310e-01
8.791940000000000310e-01
8.791940000000000310e-01
8.783879999999999466e-01
8.735530000000000239e-01
8.775819999999999732e-01
8.759710000000000552e-01
8.775819999999999732e-01
8.711360000000000214e-01
8.783879999999999466e-01
8.751649999999999707e-01
8.775819999999999732e-01
8.783879999999999466e-01
8.783879999999999466e-01
8.767770000000000286e-01
8.775819999999999732e-01
8.654950000000000143e-01
8.791940000000000310e-01
8.783879999999999466e-01
8.783879999999999466e-01
8.767770000000000286e-01
8.767770000000000286e-01
8.767770000000000286e-01
8.783879999999999466e-01
8.767770000000000286e-01
8.791940000000000310e-01
8.767770000000000286e-01
8.767770000000000286e-01
8.775819999999999732e-01
8.856410000000000116e-01
8.832229999999999803e-01
8.808059999999999778e-01
8.816119999999999512e-01
8.767770000000000286e-01
8.775819999999999732e-01
8.816119999999999512e-01
8.824180000000000357e-01
8.832229999999999803e-01
8.800000000000000044e-01
8.872529999999999584e-01
8.832229999999999803e-01
8.824180000000000357e-01
8.832229999999999803e-01
8.840289999999999537e-01
8.808059999999999778e-01
8.816119999999999512e-01
8.832229999999999803e-01
8.800000000000000044e-01
8.824180000000000357e-01
8.816119999999999512e-01
8.864469999999999850e-01
8.832229999999999803e-01
8.824180000000000357e-01
8.808059999999999778e-01
8.800000000000000044e-01
8.824180000000000357e-01
8.832229999999999803e-01
8.816119999999999512e-01
8.832229999999999803e-01
8.824180000000000357e-01
8.800000000000000044e-01
8.800000000000000044e-01
8.816119999999999512e-01
8.816119999999999512e-01
8.791940000000000310e-01
8.791940000000000310e-01
8.808059999999999778e-01
8.783879999999999466e-01
8.791940000000000310e-01
8.808059999999999778e-01
8.791940000000000310e-01
8.816119999999999512e-01
8.824180000000000357e-01
8.816119999999999512e-01
8.719409999999999661e-01
8.783879999999999466e-01
8.800000000000000044e-01
8.775819999999999732e-01
8.751649999999999707e-01
8.783879999999999466e-01
8.751649999999999707e-01
8.783879999999999466e-01
8.848350000000000382e-01
8.832229999999999803e-01
8.800000000000000044e-01
8.783879999999999466e-01
8.824180000000000357e-01
8.816119999999999512e-01
8.800000000000000044e-01
8.840289999999999537e-01
8.832229999999999803e-01
8.816119999999999512e-01
8.840289999999999537e-01
8.800000000000000044e-01
8.816119999999999512e-01
8.775819999999999732e-01
8.840289999999999537e-01
8.816119999999999512e-01
8.824180000000000357e-01
8.783879999999999466e-01
8.864469999999999850e-01
8.856410000000000116e-01
8.832229999999999803e-01
8.824180000000000357e-01
8.791940000000000310e-01
8.808059999999999778e-01
8.759710000000000552e-01
8.824180000000000357e-01
8.800000000000000044e-01
8.856410000000000116e-01
8.783879999999999466e-01
8.783879999999999466e-01
8.824180000000000357e-01
8.856410000000000116e-01
8.808059999999999778e-01
8.743589999999999973e-01
8.759710000000000552e-01
8.791940000000000310e-01
8.767770000000000286e-01
8.800000000000000044e-01
8.767770000000000286e-01
8.791940000000000310e-01
8.703300000000000480e-01
8.783879999999999466e-01
8.783879999999999466e-01
8.775819999999999732e-01
8.832229999999999803e-01
8.808059999999999778e-01
8.791940000000000310e-01
8.759710000000000552e-01
8.783879999999999466e-01
8.727470000000000505e-01
8.735530000000000239e-01
8.719409999999999661e-01
8.759710000000000552e-01
8.711360000000000214e-01
8.759710000000000552e-01
8.751649999999999707e-01
8.759710000000000552e-01
8.775819999999999732e-01
8.695239999999999636e-01
8.751649999999999707e-01
8.727470000000000505e-01
8.703300000000000480e-01
8.679120000000000168e-01
8.687179999999999902e-01
8.687179999999999902e-01
8.703300000000000480e-01
8.679120000000000168e-01
8.791940000000000310e-01
8.880590000000000428e-01
8.904760000000000453e-01
9.017579999999999485e-01
9.073989999999999556e-01
9.130399999999999627e-01
9.178749999999999964e-01
9.275459999999999816e-01
9.235160000000000036e-01
9.339929999999999621e-01
9.460809999999999498e-01
9.533329999999999860e-01
9.420509999999999717e-01
9.315750000000000419e-01
8.977289999999999992e-01
8.735530000000000239e-01
8.638829999999999565e-01
8.598529999999999784e-01
8.558240000000000292e-01
8.517949999999999688e-01
8.558240000000000292e-01
8.469600000000000461e-01
8.421250000000000124e-01
8.332600000000000007e-01
8.372889999999999500e-01
8.477660000000000196e-01
8.558240000000000292e-01
8.566300000000000026e-01
8.582419999999999494e-01
8.582419999999999494e-01
8.550179999999999447e-01
8.654950000000000143e-01
8.679120000000000168e-01
8.646890000000000409e-01
8.743589999999999973e-01
8.671060000000000434e-01
8.646890000000000409e-01
8.598529999999999784e-01
8.687179999999999902e-01
8.711360000000000214e-01
8.743589999999999973e-01
8.791940000000000310e-01
8.816119999999999512e-01
8.848350000000000382e-01
8.872529999999999584e-01
8.848350000000000382e-01
8.856410000000000116e-01
8.783879999999999466e-01
8.832229999999999803e-01
8.848350000000000382e-01
8.872529999999999584e-01
8.896699999999999608e-01
8.848350000000000382e-01
8.832229999999999803e-01
8.816119999999999512e-01
8.775819999999999732e-01
8.783879999999999466e-01
8.783879999999999466e-01
8.767770000000000286e-01
8.832229999999999803e-01
8.856410000000000116e-01
8.808059999999999778e-01
8.816119999999999512e-01
8.783879999999999466e-01
8.832229999999999803e-01
8.856410000000000116e-01
8.840289999999999537e-01
8.848350000000000382e-01
8.832229999999999803e-01
8.856410000000000116e-01
8.872529999999999584e-01
8.872529999999999584e-01
8.912820000000000187e-01
8.904760000000000453e-01
8.969230000000000258e-01
8.928939999999999655e-01
8.920879999999999921e-01
8.945049999999999946e-01
8.961170000000000524e-01
8.961170000000000524e-01
8.961170000000000524e-01
8.969230000000000258e-01
8.969230000000000258e-01
8.985349999999999726e-01
8.985349999999999726e-01
8.945049999999999946e-01
8.993409999999999460e-01
8.985349999999999726e-01
8.993409999999999460e-01
9.033700000000000063e-01
8.945049999999999946e-01
8.945049999999999946e-01
8.977289999999999992e-01
8.969230000000000258e-01
9.025640000000000329e-01
9.073989999999999556e-01
9.025640000000000329e-01
9.025640000000000329e-01
9.033700000000000063e-01
9.025640000000000329e-01
9.033700000000000063e-01
9.065929999999999822e-01
9.082050000000000400e-01
9.033700000000000063e-01
9.065929999999999822e-01
9.082050000000000400e-01
9.049819999999999531e-01
8.985349999999999726e-01
8.969230000000000258e-01
8.969230000000000258e-01
9.001470000000000304e-01
8.937000000000000499e-01
8.953109999999999680e-01
8.977289999999999992e-01
8.920879999999999921e-01
8.937000000000000499e-01
8.937000000000000499e-01
8.904760000000000453e-01
8.953109999999999680e-01
8.937000000000000499e-01
8.920879999999999921e-01
8.880590000000000428e-01
8.872529999999999584e-01
8.880590000000000428e-01
8.896699999999999608e-01
8.856410000000000116e-01
8.848350000000000382e-01
8.816119999999999512e-01
8.832229999999999803e-01
8.767770000000000286e-01
8.735530000000000239e-01
8.711360000000000214e-01
8.711360000000000214e-01
8.735530000000000239e-01
8.727470000000000505e-01
8.743589999999999973e-01
8.767770000000000286e-01
8.743589999999999973e-01
8.759710000000000552e-01
8.735530000000000239e-01
8.679120000000000168e-01
8.662999999999999590e-01
8.711360000000000214e-01
8.687179999999999902e-01
8.719409999999999661e-01
8.719409999999999661e-01
8.743589999999999973e-01
8.679120000000000168e-01
8.759710000000000552e-01
8.816119999999999512e-01
8.888639999999999874e-01
8.888639999999999874e-01
8.920879999999999921e-01
8.856410000000000116e-01
8.840289999999999537e-01
8.880590000000000428e-01
8.816119999999999512e-01
8.783879999999999466e-01
8.775819999999999732e-01
8.808059999999999778e-01
8.767770000000000286e-01
8.775819999999999732e-01
8.808059999999999778e-01
8.840289999999999537e-01
8.840289999999999537e-01
8.816119999999999512e-01
8.824180000000000357e-01
8.824180000000000357e-01
8.783879999999999466e-01
8.800000000000000044e-01
8.759710000000000552e-01
8.719409999999999661e-01
8.695239999999999636e-01
8.662999999999999590e-01
8.711360000000000214e-01
8.727470000000000505e-01
8.808059999999999778e-01
8.840289999999999537e-01
8.937000000000000499e-01
8.928939999999999655e-01
8.945049999999999946e-01
8.848350000000000382e-01
8.800000000000000044e-01
8.808059999999999778e-01
8.816119999999999512e-01
8.791940000000000310e-01
8.791940000000000310e-01
8.832229999999999803e-01
8.848350000000000382e-01
8.864469999999999850e-01
8.727470000000000505e-01
8.542119999999999713e-01
8.501830000000000220e-01
8.477660000000000196e-01
8.493770000000000486e-01
8.493770000000000486e-01
8.630769999999999831e-01
8.856410000000000116e-01
9.017579999999999485e-01
9.114290000000000447e-01
9.162639999999999674e-01
9.178749999999999964e-01
9.178749999999999964e-01
9.130399999999999627e-01
9.106229999999999603e-01
9.057880000000000376e-01
8.993409999999999460e-01
8.945049999999999946e-01
8.880590000000000428e-01
8.904760000000000453e-01
8.920879999999999921e-01
8.928939999999999655e-01
8.937000000000000499e-01
8.840289999999999537e-01
8.864469999999999850e-01
8.824180000000000357e-01
8.743589999999999973e-01
8.743589999999999973e-01
8.735530000000000239e-01
8.759710000000000552e-01
8.743589999999999973e-01
8.751649999999999707e-01
8.800000000000000044e-01
8.775819999999999732e-01
8.808059999999999778e-01
8.856410000000000116e-01
8.937000000000000499e-01
9.009519999999999751e-01
9.090110000000000134e-01
9.090110000000000134e-01
9.033700000000000063e-01
8.945049999999999946e-01
8.840289999999999537e-01
8.751649999999999707e-01
8.759710000000000552e-01
8.654950000000000143e-01
8.719409999999999661e-01
8.783879999999999466e-01
8.888639999999999874e-01
8.969230000000000258e-01
9.033700000000000063e-01
9.049819999999999531e-01
9.041759999999999797e-01
9.001470000000000304e-01
8.961170000000000524e-01
8.856410000000000116e-01
8.783879999999999466e-01
8.800000000000000044e-01
8.824180000000000357e-01
8.945049999999999946e-01
9.025640000000000329e-01
9.106229999999999603e-01
9.025640000000000329e-01
8.953109999999999680e-01
8.920879999999999921e-01
8.824180000000000357e-01
8.791940000000000310e-01
8.791940000000000310e-01
8.816119999999999512e-01
8.816119999999999512e-01
8.888639999999999874e-01
8.800000000000000044e-01
8.679120000000000168e-01
8.590480000000000338e-01
8.558240000000000292e-01
8.582419999999999494e-01
8.679120000000000168e-01
8.727470000000000505e-01
8.767770000000000286e-01
8.904760000000000453e-01
8.912820000000000187e-01
8.880590000000000428e-01
8.832229999999999803e-01
8.775819999999999732e-01
8.767770000000000286e-01
8.872529999999999584e-01
8.953109999999999680e-01
8.969230000000000258e-01
9.025640000000000329e-01
8.961170000000000524e-01
8.848350000000000382e-01
8.791940000000000310e-01
8.832229999999999803e-01
8.880590000000000428e-01
8.912820000000000187e-01
9.009519999999999751e-01
9.082050000000000400e-01
9.017579999999999485e-01
8.888639999999999874e-01
8.808059999999999778e-01
8.800000000000000044e-01
8.832229999999999803e-01
8.759710000000000552e-01
8.695239999999999636e-01
8.711360000000000214e-01
8.662999999999999590e-01
8.743589999999999973e-01
8.800000000000000044e-01
8.920879999999999921e-01
9.017579999999999485e-01
9.122339999999999893e-01
9.202930000000000277e-01
9.267400000000000082e-01
9.460809999999999498e-01
9.509159999999999835e-01
9.718679999999999541e-01
9.847620000000000262e-01
9.710619999999999807e-01
9.444690000000000030e-01
9.130399999999999627e-01
8.800000000000000044e-01
8.679120000000000168e-01
8.671060000000000434e-01
8.566300000000000026e-01
8.582419999999999494e-01
8.526010000000000533e-01
8.477660000000000196e-01
8.445420000000000149e-01
8.469600000000000461e-01
8.501830000000000220e-01
8.662999999999999590e-01
8.687179999999999902e-01
8.574359999999999760e-01
8.550179999999999447e-01
8.461539999999999617e-01
8.509889999999999954e-01
8.654950000000000143e-01
8.904760000000000453e-01
9.033700000000000063e-01
8.977289999999999992e-01
8.993409999999999460e-01
8.953109999999999680e-01
8.888639999999999874e-01
8.880590000000000428e-01
8.912820000000000187e-01
8.953109999999999680e-01
9.001470000000000304e-01
8.969230000000000258e-01
8.920879999999999921e-01
8.840289999999999537e-01
8.751649999999999707e-01
8.695239999999999636e-01
8.703300000000000480e-01
8.791940000000000310e-01
8.808059999999999778e-01
8.920879999999999921e-01
8.969230000000000258e-01
9.009519999999999751e-01
9.033700000000000063e-01
9.001470000000000304e-01
9.001470000000000304e-01
8.928939999999999655e-01
8.791940000000000310e-01
8.719409999999999661e-01
8.751649999999999707e-01
8.808059999999999778e-01
8.928939999999999655e-01
9.041759999999999797e-01
9.130399999999999627e-01
9.194870000000000543e-01
9.251279999999999504e-01
9.235160000000000036e-01
9.114290000000000447e-01
9.049819999999999531e-01
9.033700000000000063e-01
8.864469999999999850e-01
9.001470000000000304e-01
9.033700000000000063e-01
9.114290000000000447e-01
9.073989999999999556e-01
9.098169999999999868e-01
9.033700000000000063e-01
8.937000000000000499e-01
8.840289999999999537e-01
8.791940000000000310e-01
8.816119999999999512e-01
8.969230000000000258e-01
9.049819999999999531e-01
9.098169999999999868e-01
9.130399999999999627e-01
9.057880000000000376e-01
8.945049999999999946e-01
8.783879999999999466e-01
8.767770000000000286e-01
8.848350000000000382e-01
9.033700000000000063e-01
9.243219999999999770e-01
9.436630000000000296e-01
9.476919999999999789e-01
9.525270000000000126e-01
9.509159999999999835e-01
9.420509999999999717e-01
9.275459999999999816e-01
9.235160000000000036e-01
9.170700000000000518e-01
9.162639999999999674e-01
9.098169999999999868e-01
9.170700000000000518e-01
9.194870000000000543e-01
9.259340000000000348e-01
9.347990000000000466e-01
9.243219999999999770e-01
9.170700000000000518e-01
9.065929999999999822e-01
9.001470000000000304e-01
8.864469999999999850e-01
8.775819999999999732e-01
8.711360000000000214e-01
8.671060000000000434e-01
8.783879999999999466e-01
8.961170000000000524e-01
9.170700000000000518e-01
9.267400000000000082e-01
9.235160000000000036e-01
9.065929999999999822e-01
8.904760000000000453e-01
8.840289999999999537e-01
8.808059999999999778e-01
8.848350000000000382e-01
8.888639999999999874e-01
8.880590000000000428e-01
9.009519999999999751e-01
8.937000000000000499e-01
8.945049999999999946e-01
9.073989999999999556e-01
9.219049999999999745e-01
9.065929999999999822e-01
9.098169999999999868e-01
9.057880000000000376e-01
8.920879999999999921e-01
8.961170000000000524e-01
8.920879999999999921e-01
8.920879999999999921e-01
8.888639999999999874e-01
8.896699999999999608e-01
8.912820000000000187e-01
8.840289999999999537e-01
8.848350000000000382e-01
8.783879999999999466e-01
8.767770000000000286e-01
8.816119999999999512e-01
8.840289999999999537e-01
8.840289999999999537e-01
8.904760000000000453e-01
8.945049999999999946e-01
9.001470000000000304e-01
9.001470000000000304e-01
8.985349999999999726e-01
9.073989999999999556e-01
8.969230000000000258e-01
8.953109999999999680e-01
8.969230000000000258e-01
8.961170000000000524e-01
8.888639999999999874e-01
8.912820000000000187e-01
8.816119999999999512e-01
8.759710000000000552e-01
8.727470000000000505e-01
8.695239999999999636e-01
8.759710000000000552e-01
8.808059999999999778e-01
8.864469999999999850e-01
8.848350000000000382e-01
8.808059999999999778e-01
8.840289999999999537e-01
8.864469999999999850e-01
8.888639999999999874e-01
9.001470000000000304e-01
9.041759999999999797e-01
9.106229999999999603e-01
9.073989999999999556e-01
9.049819999999999531e-01
9.001470000000000304e-01
9.017579999999999485e-01
8.904760000000000453e-01
8.888639999999999874e-01
8.977289999999999992e-01
9.017579999999999485e-01
9.017579999999999485e-01
9.001470000000000304e-01
9.009519999999999751e-01
9.001470000000000304e-01
8.945049999999999946e-01
8.872529999999999584e-01
8.937000000000000499e-01
8.912820000000000187e-01
8.928939999999999655e-01
8.920879999999999921e-01
8.912820000000000187e-01
8.904760000000000453e-01
8.808059999999999778e-01
8.832229999999999803e-01
8.751649999999999707e-01
8.759710000000000552e-01
8.743589999999999973e-01
8.719409999999999661e-01
8.727470000000000505e-01
8.711360000000000214e-01
8.767770000000000286e-01
8.912820000000000187e-01
9.073989999999999556e-01
9.210990000000000011e-01
9.146520000000000206e-01
9.138460000000000472e-01
9.065929999999999822e-01
9.049819999999999531e-01
8.993409999999999460e-01
8.993409999999999460e-01
9.017579999999999485e-01
8.993409999999999460e-01
8.969230000000000258e-01
8.969230000000000258e-01
8.904760000000000453e-01
8.945049999999999946e-01
8.961170000000000524e-01
8.953109999999999680e-01
8.856410000000000116e-01
8.920879999999999921e-01
8.888639999999999874e-01
8.912820000000000187e-01
8.904760000000000453e-01
8.937000000000000499e-01
8.961170000000000524e-01
8.945049999999999946e-01
8.928939999999999655e-01
8.953109999999999680e-01
8.896699999999999608e-01
8.888639999999999874e-01
8.937000000000000499e-01
8.969230000000000258e-01
8.920879999999999921e-01
8.904760000000000453e-01
8.937000000000000499e-01
8.961170000000000524e-01
9.009519999999999751e-01
8.985349999999999726e-01
8.937000000000000499e-01
9.017579999999999485e-01
9.009519999999999751e-01
9.025640000000000329e-01
8.969230000000000258e-01
8.912820000000000187e-01
8.920879999999999921e-01
8.912820000000000187e-01
8.856410000000000116e-01
8.848350000000000382e-01
8.840289999999999537e-01
8.848350000000000382e-01
8.800000000000000044e-01
8.808059999999999778e-01
8.856410000000000116e-01
8.832229999999999803e-01
8.904760000000000453e-01
8.985349999999999726e-01
8.937000000000000499e-01
8.953109999999999680e-01
8.912820000000000187e-01
8.840289999999999537e-01
8.864469999999999850e-01
8.824180000000000357e-01
8.880590000000000428e-01
8.904760000000000453e-01
8.864469999999999850e-01
8.896699999999999608e-01
8.912820000000000187e-01
8.896699999999999608e-01
8.840289999999999537e-01
8.880590000000000428e-01
8.848350000000000382e-01
8.872529999999999584e-01
8.856410000000000116e-01
8.896699999999999608e-01
8.856410000000000116e-01
8.840289999999999537e-01
8.864469999999999850e-01
8.880590000000000428e-01
8.808059999999999778e-01
8.840289999999999537e-01
8.840289999999999537e-01
8.775819999999999732e-01
8.791940000000000310e-01
8.800000000000000044e-01
8.751649999999999707e-01
8.848350000000000382e-01
8.848350000000000382e-01
8.896699999999999608e-01
8.937000000000000499e-01
8.985349999999999726e-01
8.993409999999999460e-01
9.041759999999999797e-01
9.138460000000000472e-01
9.210990000000000011e-01
9.267400000000000082e-01
9.347990000000000466e-01
9.501100000000000101e-01
9.589739999999999931e-01
9.686449999999999783e-01
9.613920000000000243e-01
9.468860000000000054e-01
9.154579999999999940e-01
8.800000000000000044e-01
8.662999999999999590e-01
8.622710000000000097e-01
8.566300000000000026e-01
8.558240000000000292e-01
8.542119999999999713e-01
8.445420000000000149e-01
8.356780000000000319e-01
8.243960000000000177e-01
8.316480000000000539e-01
8.389010000000000078e-01
8.493770000000000486e-01
8.550179999999999447e-01
8.566300000000000026e-01
8.727470000000000505e-01
8.783879999999999466e-01
8.937000000000000499e-01
8.945049999999999946e-01
8.920879999999999921e-01
8.896699999999999608e-01
8.832229999999999803e-01
8.937000000000000499e-01
8.896699999999999608e-01
8.888639999999999874e-01
8.864469999999999850e-01
8.880590000000000428e-01
8.888639999999999874e-01
8.872529999999999584e-01
8.896699999999999608e-01
8.848350000000000382e-01
8.783879999999999466e-01
8.775819999999999732e-01
8.848350000000000382e-01
8.840289999999999537e-01
8.824180000000000357e-01
8.767770000000000286e-01
8.840289999999999537e-01
8.840289999999999537e-01
8.832229999999999803e-01
8.775819999999999732e-01
8.767770000000000286e-01
8.751649999999999707e-01
8.719409999999999661e-01
8.703300000000000480e-01
8.711360000000000214e-01
8.719409999999999661e-01
8.735530000000000239e-01
8.791940000000000310e-01
8.711360000000000214e-01
8.743589999999999973e-01
8.912820000000000187e-01
9.073989999999999556e-01
9.162639999999999674e-01
9.122339999999999893e-01
9.130399999999999627e-01
9.090110000000000134e-01
9.130399999999999627e-01
9.122339999999999893e-01
9.090110000000000134e-01
9.082050000000000400e-01
9.049819999999999531e-01
9.033700000000000063e-01
9.057880000000000376e-01
9.025640000000000329e-01
9.033700000000000063e-01
9.082050000000000400e-01
9.025640000000000329e-01
9.065929999999999822e-01
9.033700000000000063e-01
9.106229999999999603e-01
9.138460000000000472e-01
9.065929999999999822e-01
9.057880000000000376e-01
9.098169999999999868e-01
9.049819999999999531e-01
9.025640000000000329e-01
9.009519999999999751e-01
9.001470000000000304e-01
8.993409999999999460e-01
9.057880000000000376e-01
9.049819999999999531e-01
9.065929999999999822e-01
9.170700000000000518e-01
9.194870000000000543e-01
9.194870000000000543e-01
9.194870000000000543e-01
9.202930000000000277e-01
9.146520000000000206e-01
9.082050000000000400e-01
9.146520000000000206e-01
9.106229999999999603e-01
9.073989999999999556e-01
9.082050000000000400e-01
9.049819999999999531e-01
9.049819999999999531e-01
9.041759999999999797e-01
9.017579999999999485e-01
9.025640000000000329e-01
9.009519999999999751e-01
8.985349999999999726e-01
9.001470000000000304e-01
8.993409999999999460e-01
8.969230000000000258e-01
8.953109999999999680e-01
9.001470000000000304e-01
8.864469999999999850e-01
8.904760000000000453e-01
8.856410000000000116e-01
8.848350000000000382e-01
8.816119999999999512e-01
8.679120000000000168e-01
8.743589999999999973e-01
8.775819999999999732e-01
8.808059999999999778e-01
8.783879999999999466e-01
8.840289999999999537e-01
8.816119999999999512e-01
8.783879999999999466e-01
8.791940000000000310e-01
8.775819999999999732e-01
8.743589999999999973e-01
8.783879999999999466e-01
8.767770000000000286e-01
8.783879999999999466e-01
8.848350000000000382e-01
8.920879999999999921e-01
8.977289999999999992e-01
8.977289999999999992e-01
8.912820000000000187e-01
8.912820000000000187e-01
8.928939999999999655e-01
8.904760000000000453e-01
8.864469999999999850e-01
8.840289999999999537e-01
8.848350000000000382e-01
8.888639999999999874e-01
8.856410000000000116e-01
8.832229999999999803e-01
8.791940000000000310e-01
8.816119999999999512e-01
8.872529999999999584e-01
8.816119999999999512e-01
8.719409999999999661e-01
8.816119999999999512e-01
8.808059999999999778e-01
8.848350000000000382e-01
8.816119999999999512e-01
8.783879999999999466e-01
8.800000000000000044e-01
8.775819999999999732e-01
8.743589999999999973e-01
8.719409999999999661e-01
8.711360000000000214e-01
8.719409999999999661e-01
8.848350000000000382e-01
8.945049999999999946e-01
8.945049999999999946e-01
8.969230000000000258e-01
8.928939999999999655e-01
8.928939999999999655e-01
8.928939999999999655e-01
8.880590000000000428e-01
8.856410000000000116e-01
8.880590000000000428e-01
8.896699999999999608e-01
8.896699999999999608e-01
8.937000000000000499e-01
8.896699999999999608e-01
8.856410000000000116e-01
8.783879999999999466e-01
8.872529999999999584e-01
8.864469999999999850e-01
8.856410000000000116e-01
8.840289999999999537e-01
8.864469999999999850e-01
8.816119999999999512e-01
8.695239999999999636e-01
8.646890000000000409e-01
8.695239999999999636e-01
8.727470000000000505e-01
8.719409999999999661e-01
8.808059999999999778e-01
8.872529999999999584e-01
8.928939999999999655e-01
9.017579999999999485e-01
9.001470000000000304e-01
8.993409999999999460e-01
8.961170000000000524e-01
8.920879999999999921e-01
8.977289999999999992e-01
8.985349999999999726e-01
8.993409999999999460e-01
8.961170000000000524e-01
8.904760000000000453e-01
8.888639999999999874e-01
8.896699999999999608e-01
8.872529999999999584e-01
8.864469999999999850e-01
8.880590000000000428e-01
8.872529999999999584e-01
8.872529999999999584e-01
8.888639999999999874e-01
8.872529999999999584e-01
8.864469999999999850e-01
8.808059999999999778e-01
8.848350000000000382e-01
8.864469999999999850e-01
8.848350000000000382e-01
8.856410000000000116e-01
8.880590000000000428e-01
8.840289999999999537e-01
8.856410000000000116e-01
8.864469999999999850e-01
8.880590000000000428e-01
8.888639999999999874e-01
8.832229999999999803e-01
8.808059999999999778e-01
8.816119999999999512e-01
8.767770000000000286e-01
8.783879999999999466e-01
8.775819999999999732e-01
8.775819999999999732e-01
8.767770000000000286e-01
8.880590000000000428e-01
8.912820000000000187e-01
8.985349999999999726e-01
8.993409999999999460e-01
9.041759999999999797e-01
8.977289999999999992e-01
8.985349999999999726e-01
8.993409999999999460e-01
8.961170000000000524e-01
8.953109999999999680e-01
8.937000000000000499e-01
8.904760000000000453e-01
8.912820000000000187e-01
8.937000000000000499e-01
8.856410000000000116e-01
8.856410000000000116e-01
8.743589999999999973e-01
8.832229999999999803e-01
8.856410000000000116e-01
8.824180000000000357e-01
8.832229999999999803e-01
8.840289999999999537e-01
8.832229999999999803e-01
8.832229999999999803e-01
8.864469999999999850e-01
8.872529999999999584e-01
8.808059999999999778e-01
8.808059999999999778e-01
8.840289999999999537e-01
8.832229999999999803e-01
8.896699999999999608e-01
8.832229999999999803e-01
8.832229999999999803e-01
8.840289999999999537e-01
8.767770000000000286e-01
8.872529999999999584e-01
8.840289999999999537e-01
8.816119999999999512e-01
8.840289999999999537e-01
8.896699999999999608e-01
8.872529999999999584e-01
8.824180000000000357e-01
8.824180000000000357e-01
8.824180000000000357e-01
8.824180000000000357e-01
8.816119999999999512e-01
8.848350000000000382e-01
8.840289999999999537e-01
8.824180000000000357e-01
8.824180000000000357e-01
8.816119999999999512e-01
8.791940000000000310e-01
8.840289999999999537e-01
8.824180000000000357e-01
8.896699999999999608e-01
8.928939999999999655e-01
8.985349999999999726e-01
9.017579999999999485e-01
9.049819999999999531e-01
9.130399999999999627e-01
9.219049999999999745e-01
9.388279999999999959e-01
9.380220000000000224e-01
9.444690000000000030e-01
9.638099999999999445e-01
9.702560000000000073e-01
9.509159999999999835e-01
9.307689999999999575e-01
8.977289999999999992e-01
8.824180000000000357e-01
8.775819999999999732e-01
8.695239999999999636e-01
8.679120000000000168e-01
8.606589999999999518e-01
8.598529999999999784e-01
8.517949999999999688e-01
8.453479999999999883e-01
8.372889999999999500e-01
8.550179999999999447e-01
8.582419999999999494e-01
8.638829999999999565e-01
8.662999999999999590e-01
8.654950000000000143e-01
8.646890000000000409e-01
8.671060000000000434e-01
8.791940000000000310e-01
8.808059999999999778e-01
8.880590000000000428e-01
8.856410000000000116e-01
8.888639999999999874e-01
8.872529999999999584e-01
8.848350000000000382e-01
8.840289999999999537e-01
8.824180000000000357e-01
8.856410000000000116e-01
8.832229999999999803e-01
8.840289999999999537e-01
8.856410000000000116e-01
8.872529999999999584e-01
8.880590000000000428e-01
8.888639999999999874e-01
8.832229999999999803e-01
8.848350000000000382e-01
8.856410000000000116e-01
8.872529999999999584e-01
8.904760000000000453e-01
8.888639999999999874e-01
8.904760000000000453e-01
8.920879999999999921e-01
8.896699999999999608e-01
8.912820000000000187e-01
8.896699999999999608e-01
8.904760000000000453e-01
8.791940000000000310e-01
8.937000000000000499e-01
8.920879999999999921e-01
8.912820000000000187e-01
8.832229999999999803e-01
8.937000000000000499e-01
8.920879999999999921e-01
8.912820000000000187e-01
8.928939999999999655e-01
8.985349999999999726e-01
8.928939999999999655e-01
8.953109999999999680e-01
8.969230000000000258e-01
8.969230000000000258e-01
8.993409999999999460e-01
8.969230000000000258e-01
8.993409999999999460e-01
9.041759999999999797e-01
9.001470000000000304e-01
9.025640000000000329e-01
9.041759999999999797e-01
9.025640000000000329e-01
9.001470000000000304e-01
9.033700000000000063e-01
8.993409999999999460e-01
9.098169999999999868e-01
9.057880000000000376e-01
9.090110000000000134e-01
9.073989999999999556e-01
9.106229999999999603e-01
9.170700000000000518e-01
9.082050000000000400e-01
9.122339999999999893e-01
9.138460000000000472e-01
9.146520000000000206e-01
9.057880000000000376e-01
9.130399999999999627e-01
9.178749999999999964e-01
9.162639999999999674e-01
9.186809999999999699e-01
9.146520000000000206e-01
9.114290000000000447e-01
9.098169999999999868e-01
9.098169999999999868e-01
9.090110000000000134e-01
9.090110000000000134e-01
9.098169999999999868e-01
9.122339999999999893e-01
9.114290000000000447e-01
9.033700000000000063e-01
9.073989999999999556e-01
9.057880000000000376e-01
9.049819999999999531e-01
9.009519999999999751e-01
9.041759999999999797e-01
9.025640000000000329e-01
9.041759999999999797e-01
9.017579999999999485e-01
9.001470000000000304e-01
8.993409999999999460e-01
9.025640000000000329e-01
8.945049999999999946e-01
8.937000000000000499e-01
8.920879999999999921e-01
8.937000000000000499e-01
8.920879999999999921e-01
8.904760000000000453e-01
8.953109999999999680e-01
8.888639999999999874e-01
8.920879999999999921e-01
8.937000000000000499e-01
8.904760000000000453e-01
8.896699999999999608e-01
8.888639999999999874e-01
8.888639999999999874e-01
8.832229999999999803e-01
8.848350000000000382e-01
8.904760000000000453e-01
8.888639999999999874e-01
8.896699999999999608e-01
8.848350000000000382e-01
8.872529999999999584e-01
8.832229999999999803e-01
8.920879999999999921e-01
8.816119999999999512e-01
8.856410000000000116e-01
8.888639999999999874e-01
8.856410000000000116e-01
8.840289999999999537e-01
8.856410000000000116e-01
8.864469999999999850e-01
8.904760000000000453e-01
8.864469999999999850e-01
8.872529999999999584e-01
8.848350000000000382e-01
8.896699999999999608e-01
8.896699999999999608e-01
8.888639999999999874e-01
8.896699999999999608e-01
8.904760000000000453e-01
8.888639999999999874e-01
8.864469999999999850e-01
8.880590000000000428e-01
8.880590000000000428e-01
8.888639999999999874e-01
8.856410000000000116e-01
8.912820000000000187e-01
8.888639999999999874e-01
8.848350000000000382e-01
8.840289999999999537e-01
8.880590000000000428e-01
8.888639999999999874e-01
8.888639999999999874e-01
8.920879999999999921e-01
8.928939999999999655e-01
8.912820000000000187e-01
8.937000000000000499e-01
8.888639999999999874e-01
8.888639999999999874e-01
8.920879999999999921e-01
8.912820000000000187e-01
8.888639999999999874e-01
8.904760000000000453e-01
8.904760000000000453e-01
8.912820000000000187e-01
8.928939999999999655e-01
8.920879999999999921e-01
8.912820000000000187e-01
8.920879999999999921e-01
8.880590000000000428e-01
8.904760000000000453e-01
8.928939999999999655e-01
8.888639999999999874e-01
8.904760000000000453e-01
8.896699999999999608e-01
8.880590000000000428e-01
8.888639999999999874e-01
8.888639999999999874e-01
8.888639999999999874e-01
8.880590000000000428e-01
8.864469999999999850e-01
8.888639999999999874e-01
8.896699999999999608e-01
8.920879999999999921e-01
8.880590000000000428e-01
8.880590000000000428e-01
8.880590000000000428e-01
8.824180000000000357e-01
8.864469999999999850e-01
8.888639999999999874e-01
8.904760000000000453e-01
8.920879999999999921e-01
8.872529999999999584e-01
8.928939999999999655e-01
8.888639999999999874e-01
8.912820000000000187e-01
8.896699999999999608e-01
8.880590000000000428e-01
8.912820000000000187e-01
8.920879999999999921e-01
8.896699999999999608e-01
8.953109999999999680e-01
8.920879999999999921e-01
8.904760000000000453e-01
8.912820000000000187e-01
8.920879999999999921e-01
8.977289999999999992e-01
8.937000000000000499e-01
8.977289999999999992e-01
9.001470000000000304e-01
8.920879999999999921e-01
8.920879999999999921e-01
8.920879999999999921e-01
8.920879999999999921e-01
8.904760000000000453e-01
8.904760000000000453e-01
8.937000000000000499e-01
8.928939999999999655e-01
8.953109999999999680e-01
8.912820000000000187e-01
8.928939999999999655e-01
8.904760000000000453e-01
8.848350000000000382e-01
8.816119999999999512e-01
8.840289999999999537e-01
8.872529999999999584e-01
8.888639999999999874e-01
8.840289999999999537e-01
8.832229999999999803e-01
8.888639999999999874e-01
8.920879999999999921e-01
8.888639999999999874e-01
8.808059999999999778e-01
8.880590000000000428e-01
8.896699999999999608e-01
8.904760000000000453e-01
8.937000000000000499e-01
8.848350000000000382e-01
8.848350000000000382e-01
8.880590000000000428e-01
8.896699999999999608e-01
8.912820000000000187e-01
8.880590000000000428e-01
8.864469999999999850e-01
8.880590000000000428e-01
8.832229999999999803e-01
8.832229999999999803e-01
8.856410000000000116e-01
8.856410000000000116e-01
8.864469999999999850e-01
8.856410000000000116e-01
8.872529999999999584e-01
8.848350000000000382e-01
8.872529999999999584e-01
8.896699999999999608e-01
8.880590000000000428e-01
8.872529999999999584e-01
8.888639999999999874e-01
8.864469999999999850e-01
8.872529999999999584e-01
8.896699999999999608e-01
8.856410000000000116e-01
8.896699999999999608e-01
8.920879999999999921e-01
8.977289999999999992e-01
9.017579999999999485e-01
9.114290000000000447e-01
9.090110000000000134e-01
9.219049999999999745e-01
9.291580000000000394e-01
9.299629999999999841e-01
9.460809999999999498e-01
9.493040000000000367e-01
9.533329999999999860e-01
9.468860000000000054e-01
9.347990000000000466e-01
8.977289999999999992e-01
8.864469999999999850e-01
8.800000000000000044e-01
8.735530000000000239e-01
8.711360000000000214e-01
8.654950000000000143e-01
8.638829999999999565e-01
8.558240000000000292e-01
8.542119999999999713e-01
8.372889999999999500e-01
8.477660000000000196e-01
8.590480000000000338e-01
8.679120000000000168e-01
8.727470000000000505e-01
8.703300000000000480e-01
8.679120000000000168e-01
8.679120000000000168e-01
8.767770000000000286e-01
8.848350000000000382e-01
8.856410000000000116e-01
8.872529999999999584e-01
8.856410000000000116e-01
8.840289999999999537e-01
8.880590000000000428e-01
8.888639999999999874e-01
8.856410000000000116e-01
8.840289999999999537e-01
8.880590000000000428e-01
8.888639999999999874e-01
8.872529999999999584e-01
8.912820000000000187e-01
8.904760000000000453e-01
8.856410000000000116e-01
8.888639999999999874e-01
8.904760000000000453e-01
8.856410000000000116e-01
8.888639999999999874e-01
8.920879999999999921e-01
8.920879999999999921e-01
8.888639999999999874e-01
8.928939999999999655e-01
8.920879999999999921e-01
8.896699999999999608e-01
8.928939999999999655e-01
8.937000000000000499e-01
8.937000000000000499e-01
8.937000000000000499e-01
8.832229999999999803e-01
8.928939999999999655e-01
8.937000000000000499e-01
8.953109999999999680e-01
8.961170000000000524e-01
9.025640000000000329e-01
8.969230000000000258e-01
8.969230000000000258e-01
8.961170000000000524e-01
8.993409999999999460e-01
8.985349999999999726e-01
8.953109999999999680e-01
8.969230000000000258e-01
8.961170000000000524e-01
8.953109999999999680e-01
8.993409999999999460e-01
8.985349999999999726e-01
9.001470000000000304e-01
8.993409999999999460e-01
9.025640000000000329e-01
9.041759999999999797e-01
9.041759999999999797e-01
9.049819999999999531e-01
9.073989999999999556e-01
9.082050000000000400e-01
9.082050000000000400e-01
9.098169999999999868e-01
9.090110000000000134e-01
9.082050000000000400e-01
9.106229999999999603e-01
9.138460000000000472e-01
9.154579999999999940e-01
9.162639999999999674e-01
9.138460000000000472e-01
9.130399999999999627e-01
9.114290000000000447e-01
9.146520000000000206e-01
9.122339999999999893e-01
9.130399999999999627e-01
9.154579999999999940e-01
9.106229999999999603e-01
9.146520000000000206e-01
9.114290000000000447e-01
9.090110000000000134e-01
9.017579999999999485e-01
9.065929999999999822e-01
9.073989999999999556e-01
9.082050000000000400e-01
9.065929999999999822e-01
9.090110000000000134e-01
9.017579999999999485e-01
9.041759999999999797e-01
9.049819999999999531e-01
8.977289999999999992e-01
9.001470000000000304e-01
8.993409999999999460e-01
9.041759999999999797e-01
8.969230000000000258e-01
8.977289999999999992e-01
8.961170000000000524e-01
8.945049999999999946e-01
8.937000000000000499e-01
8.920879999999999921e-01
8.961170000000000524e-01
8.945049999999999946e-01
8.904760000000000453e-01
8.904760000000000453e-01
8.896699999999999608e-01
8.904760000000000453e-01
8.880590000000000428e-01
8.840289999999999537e-01
8.848350000000000382e-01
8.856410000000000116e-01
8.880590000000000428e-01
8.880590000000000428e-01
8.896699999999999608e-01
8.864469999999999850e-01
8.864469999999999850e-01
8.864469999999999850e-01
8.832229999999999803e-01
8.856410000000000116e-01
8.864469999999999850e-01
8.832229999999999803e-01
8.856410000000000116e-01
8.840289999999999537e-01
8.840289999999999537e-01
8.864469999999999850e-01
8.856410000000000116e-01
8.824180000000000357e-01
8.848350000000000382e-01
8.848350000000000382e-01
8.808059999999999778e-01
8.880590000000000428e-01
8.872529999999999584e-01
8.872529999999999584e-01
8.775819999999999732e-01
8.856410000000000116e-01
8.912820000000000187e-01
8.872529999999999584e-01
8.912820000000000187e-01
8.888639999999999874e-01
8.872529999999999584e-01
8.888639999999999874e-01
8.888639999999999874e-01
8.928939999999999655e-01
8.920879999999999921e-01
8.896699999999999608e-01
8.896699999999999608e-01
8.896699999999999608e-01
8.920879999999999921e-01
8.904760000000000453e-01
8.888639999999999874e-01
8.872529999999999584e-01
8.912820000000000187e-01
8.904760000000000453e-01
8.920879999999999921e-01
8.896699999999999608e-01
8.896699999999999608e-01
8.937000000000000499e-01
8.888639999999999874e-01
8.904760000000000453e-01
8.904760000000000453e-01
8.872529999999999584e-01
8.937000000000000499e-01
8.904760000000000453e-01
8.896699999999999608e-01
8.912820000000000187e-01
8.896699999999999608e-01
8.880590000000000428e-01
8.937000000000000499e-01
8.920879999999999921e-01
8.945049999999999946e-01
8.880590000000000428e-01
8.896699999999999608e-01
8.872529999999999584e-01
8.912820000000000187e-01
8.840289999999999537e-01
8.888639999999999874e-01
8.888639999999999874e-01
8.856410000000000116e-01
8.912820000000000187e-01
8.896699999999999608e-01
8.888639999999999874e-01
8.848350000000000382e-01
8.888639999999999874e-01
8.880590000000000428e-01
8.904760000000000453e-01
8.872529999999999584e-01
8.896699999999999608e-01
8.904760000000000453e-01
8.945049999999999946e-01
8.961170000000000524e-01
8.945049999999999946e-01
8.928939999999999655e-01
8.872529999999999584e-01
8.856410000000000116e-01
8.872529999999999584e-01
8.904760000000000453e-01
8.864469999999999850e-01
8.840289999999999537e-01
8.864469999999999850e-01
8.896699999999999608e-01
8.904760000000000453e-01
8.920879999999999921e-01
8.945049999999999946e-01
8.872529999999999584e-01
8.977289999999999992e-01
8.993409999999999460e-01
8.985349999999999726e-01
8.993409999999999460e-01
8.977289999999999992e-01
8.977289999999999992e-01
8.928939999999999655e-01
8.928939999999999655e-01
8.880590000000000428e-01
8.920879999999999921e-01
8.848350000000000382e-01
8.832229999999999803e-01
8.816119999999999512e-01
8.888639999999999874e-01
8.880590000000000428e-01
8.904760000000000453e-01
8.896699999999999608e-01
8.920879999999999921e-01
8.904760000000000453e-01
8.864469999999999850e-01
8.896699999999999608e-01
8.856410000000000116e-01
8.743589999999999973e-01
8.824180000000000357e-01
8.808059999999999778e-01
8.864469999999999850e-01
8.928939999999999655e-01
9.017579999999999485e-01
9.065929999999999822e-01
9.049819999999999531e-01
9.090110000000000134e-01
9.122339999999999893e-01
9.073989999999999556e-01
9.073989999999999556e-01
8.880590000000000428e-01
8.767770000000000286e-01
8.759710000000000552e-01
8.751649999999999707e-01
8.703300000000000480e-01
8.679120000000000168e-01
8.654950000000000143e-01
8.711360000000000214e-01
8.735530000000000239e-01
8.711360000000000214e-01
8.662999999999999590e-01
8.727470000000000505e-01
8.783879999999999466e-01
8.864469999999999850e-01
8.808059999999999778e-01
8.808059999999999778e-01
8.808059999999999778e-01
8.783879999999999466e-01
8.808059999999999778e-01
8.791940000000000310e-01
8.759710000000000552e-01
8.800000000000000044e-01
8.791940000000000310e-01
8.880590000000000428e-01
8.912820000000000187e-01
8.985349999999999726e-01
9.049819999999999531e-01
9.106229999999999603e-01
9.227109999999999479e-01
9.307689999999999575e-01
9.404400000000000537e-01
9.493040000000000367e-01
9.581680000000000197e-01
9.702560000000000073e-01
9.807329999999999659e-01
9.694509999999999517e-01
9.460809999999999498e-01
9.065929999999999822e-01
8.783879999999999466e-01
8.783879999999999466e-01
8.687179999999999902e-01
8.614650000000000363e-01
8.574359999999999760e-01
8.501830000000000220e-01
8.356780000000000319e-01
8.276189999999999936e-01
8.203660000000000396e-01
8.268130000000000202e-01
8.405129999999999546e-01
8.493770000000000486e-01
8.534070000000000267e-01
8.526010000000000533e-01
8.550179999999999447e-01
8.638829999999999565e-01
8.727470000000000505e-01
8.791940000000000310e-01
8.791940000000000310e-01
8.824180000000000357e-01
8.832229999999999803e-01
8.816119999999999512e-01
8.800000000000000044e-01
8.824180000000000357e-01
8.808059999999999778e-01
8.840289999999999537e-01
8.872529999999999584e-01
8.904760000000000453e-01
8.904760000000000453e-01
8.872529999999999584e-01
8.920879999999999921e-01
8.928939999999999655e-01
8.904760000000000453e-01
8.856410000000000116e-01
8.840289999999999537e-01
8.912820000000000187e-01
8.896699999999999608e-01
8.880590000000000428e-01
8.864469999999999850e-01
8.896699999999999608e-01
8.912820000000000187e-01
8.904760000000000453e-01
8.953109999999999680e-01
8.920879999999999921e-01
8.937000000000000499e-01
8.969230000000000258e-01
8.953109999999999680e-01
8.888639999999999874e-01
8.880590000000000428e-01
8.896699999999999608e-01
8.864469999999999850e-01
8.840289999999999537e-01
8.904760000000000453e-01
8.961170000000000524e-01
9.009519999999999751e-01
9.090110000000000134e-01
9.065929999999999822e-01
9.073989999999999556e-01
9.033700000000000063e-01
8.985349999999999726e-01
8.928939999999999655e-01
8.743589999999999973e-01
8.526010000000000533e-01
8.332600000000000007e-01
8.380950000000000344e-01
8.421250000000000124e-01
8.526010000000000533e-01
8.711360000000000214e-01
8.872529999999999584e-01
9.073989999999999556e-01
9.202930000000000277e-01
9.307689999999999575e-01
9.347990000000000466e-01
9.428569999999999451e-01
9.468860000000000054e-01
9.372160000000000490e-01
9.291580000000000394e-01
9.210990000000000011e-01
9.259340000000000348e-01
9.243219999999999770e-01
9.194870000000000543e-01
9.154579999999999940e-01
9.219049999999999745e-01
9.307689999999999575e-01
9.291580000000000394e-01
9.275459999999999816e-01
9.259340000000000348e-01
9.122339999999999893e-01
9.041759999999999797e-01
8.880590000000000428e-01
8.816119999999999512e-01
8.735530000000000239e-01
8.816119999999999512e-01
8.800000000000000044e-01
8.872529999999999584e-01
8.832229999999999803e-01
8.912820000000000187e-01
9.049819999999999531e-01
9.146520000000000206e-01
9.243219999999999770e-01
9.267400000000000082e-01
9.283519999999999550e-01
9.146520000000000206e-01
9.178749999999999964e-01
9.114290000000000447e-01
9.001470000000000304e-01
8.783879999999999466e-01
8.542119999999999713e-01
8.526010000000000533e-01
8.582419999999999494e-01
8.679120000000000168e-01
8.711360000000000214e-01
8.864469999999999850e-01
8.969230000000000258e-01
9.049819999999999531e-01
9.017579999999999485e-01
8.880590000000000428e-01
8.775819999999999732e-01
8.671060000000000434e-01
8.501830000000000220e-01
8.445420000000000149e-01
8.517949999999999688e-01
8.630769999999999831e-01
8.751649999999999707e-01
8.872529999999999584e-01
8.953109999999999680e-01
9.106229999999999603e-01
9.194870000000000543e-01
9.146520000000000206e-01
9.082050000000000400e-01
9.017579999999999485e-01
8.856410000000000116e-01
8.783879999999999466e-01
8.759710000000000552e-01
8.622710000000000097e-01
8.517949999999999688e-01
8.421250000000000124e-01
8.429299999999999571e-01
8.195599999999999552e-01
8.195599999999999552e-01
8.356780000000000319e-01
8.493770000000000486e-01
8.517949999999999688e-01
8.509889999999999954e-01
8.614650000000000363e-01
8.485709999999999642e-01
8.340659999999999741e-01
8.308419999999999694e-01
8.493770000000000486e-01
8.679120000000000168e-01
8.671060000000000434e-01
8.582419999999999494e-01
8.671060000000000434e-01
8.638829999999999565e-01
8.453479999999999883e-01
8.300370000000000248e-01
8.171429999999999527e-01
8.437360000000000415e-01
8.824180000000000357e-01
9.009519999999999751e-01
9.106229999999999603e-01
9.057880000000000376e-01
9.033700000000000063e-01
9.057880000000000376e-01
9.025640000000000329e-01
8.791940000000000310e-01
8.824180000000000357e-01
8.767770000000000286e-01
8.727470000000000505e-01
8.872529999999999584e-01
8.534070000000000267e-01
8.445420000000000149e-01
8.542119999999999713e-01
8.485709999999999642e-01
8.348719999999999475e-01
8.147250000000000325e-01
8.163369999999999793e-01
8.058610000000000495e-01
8.348719999999999475e-01
8.638829999999999565e-01
8.824180000000000357e-01
8.961170000000000524e-01
8.937000000000000499e-01
8.501830000000000220e-01
8.139189999999999481e-01
7.800730000000000164e-01
7.889380000000000281e-01
8.195599999999999552e-01
8.227839999999999598e-01
8.139189999999999481e-01
8.066670000000000229e-01
7.961899999999999533e-01
7.969960000000000377e-01
8.276189999999999936e-01
8.711360000000000214e-01
8.920879999999999921e-01
8.791940000000000310e-01
8.163369999999999793e-01
7.921610000000000040e-01
7.937729999999999508e-01
8.260070000000000467e-01
8.904760000000000453e-01
9.823439999999999950e-01
1.029889999999999972e+00
1.028278000000000025e+00
1.005713999999999997e+00
9.662269999999999470e-01
9.331869999999999887e-01
8.775819999999999732e-01
8.389010000000000078e-01
8.115019999999999456e-01
8.002200000000000424e-01
7.865199999999999969e-01
8.179490000000000371e-01
8.727470000000000505e-01
8.969230000000000258e-01
9.001470000000000304e-01
8.945049999999999946e-01
8.904760000000000453e-01
8.630769999999999831e-01
8.574359999999999760e-01
8.340659999999999741e-01
8.260070000000000467e-01
8.131140000000000034e-01
8.026370000000000449e-01
8.090840000000000254e-01
7.857140000000000235e-01
7.841029999999999944e-01
7.897440000000000015e-01
7.986079999999999846e-01
7.905489999999999462e-01
8.090840000000000254e-01
8.679120000000000168e-01
9.033700000000000063e-01
9.291580000000000394e-01
9.412449999999999983e-01
9.597799999999999665e-01
9.758970000000000145e-01
9.734800000000000120e-01
8.945049999999999946e-01
7.905489999999999462e-01
7.051279999999999770e-01
6.672529999999999850e-01
7.067400000000000349e-01
7.937729999999999508e-01
8.928939999999999655e-01
9.259340000000000348e-01
9.347990000000000466e-01
9.323810000000000153e-01
9.194870000000000543e-01
9.210990000000000011e-01
9.291580000000000394e-01
9.243219999999999770e-01
8.808059999999999778e-01
8.485709999999999642e-01
8.316480000000000539e-01
8.155310000000000059e-01
8.131140000000000034e-01
7.978020000000000111e-01
8.219779999999999864e-01
8.848350000000000382e-01
9.630039999999999711e-01
9.863739999999999730e-01
9.501100000000000101e-01
8.920879999999999921e-01
7.623440000000000216e-01
6.994869999999999699e-01
6.938459999999999628e-01
7.051279999999999770e-01
7.550919999999999854e-01
8.534070000000000267e-01
9.364099999999999646e-01
1.033114000000000088e+00
1.074211999999999945e+00
1.056483999999999979e+00
9.082050000000000400e-01
7.131870000000000154e-01
6.245420000000000416e-01
6.833700000000000330e-01
8.082780000000000520e-01
9.783150000000000457e-01
9.170700000000000518e-01
8.147250000000000325e-01
7.075460000000000083e-01
7.413920000000000510e-01
8.445420000000000149e-01
9.243219999999999770e-01
9.597799999999999665e-01
9.758970000000000145e-01
9.581680000000000197e-01
9.251279999999999504e-01
8.380950000000000344e-01
8.123080000000000300e-01
7.704029999999999490e-01
7.639559999999999684e-01
7.857140000000000235e-01
8.534070000000000267e-01
9.460809999999999498e-01
9.750919999999999588e-01
9.356039999999999912e-01
8.945049999999999946e-01
9.041759999999999797e-01
9.178749999999999964e-01
9.009519999999999751e-01
8.840289999999999537e-01
8.840289999999999537e-01
8.743589999999999973e-01
8.534070000000000267e-01
8.759710000000000552e-01
8.598529999999999784e-01
8.453479999999999883e-01
8.614650000000000363e-01
8.646890000000000409e-01
8.437360000000000415e-01
8.066670000000000229e-01
7.768500000000000405e-01
7.494509999999999783e-01
7.583149999999999613e-01
8.260070000000000467e-01
8.808059999999999778e-01
9.509159999999999835e-01
9.597799999999999665e-01
9.291580000000000394e-01
9.057880000000000376e-01
8.945049999999999946e-01
8.824180000000000357e-01
8.711360000000000214e-01
8.703300000000000480e-01
8.743589999999999973e-01
8.767770000000000286e-01
8.711360000000000214e-01
8.662999999999999590e-01
8.751649999999999707e-01
8.727470000000000505e-01
8.687179999999999902e-01
8.662999999999999590e-01
8.687179999999999902e-01
8.751649999999999707e-01
8.751649999999999707e-01
8.719409999999999661e-01
8.687179999999999902e-01
8.759710000000000552e-01
8.735530000000000239e-01
8.751649999999999707e-01
8.735530000000000239e-01
8.743589999999999973e-01
8.719409999999999661e-01
8.743589999999999973e-01
8.614650000000000363e-01
8.558240000000000292e-01
8.566300000000000026e-01
8.719409999999999661e-01
8.888639999999999874e-01
8.872529999999999584e-01
8.928939999999999655e-01
9.065929999999999822e-01
9.033700000000000063e-01
8.896699999999999608e-01
8.904760000000000453e-01
8.937000000000000499e-01
8.912820000000000187e-01
8.832229999999999803e-01
8.800000000000000044e-01
8.816119999999999512e-01
8.896699999999999608e-01
8.953109999999999680e-01
8.872529999999999584e-01
8.840289999999999537e-01
8.864469999999999850e-01
8.896699999999999608e-01
8.856410000000000116e-01
8.848350000000000382e-01
8.791940000000000310e-01
8.791940000000000310e-01
8.711360000000000214e-01
8.679120000000000168e-01
8.711360000000000214e-01
8.791940000000000310e-01
8.743589999999999973e-01
8.614650000000000363e-01
8.542119999999999713e-01
8.622710000000000097e-01
8.671060000000000434e-01
8.622710000000000097e-01
8.445420000000000149e-01
8.574359999999999760e-01
8.872529999999999584e-01
8.920879999999999921e-01
8.679120000000000168e-01
8.445420000000000149e-01
8.252009999999999623e-01
8.340659999999999741e-01
8.791940000000000310e-01
9.090110000000000134e-01
8.993409999999999460e-01
9.001470000000000304e-01
9.001470000000000304e-01
8.945049999999999946e-01
8.872529999999999584e-01
8.816119999999999512e-01
8.824180000000000357e-01
8.872529999999999584e-01
8.864469999999999850e-01
8.791940000000000310e-01
8.783879999999999466e-01
8.703300000000000480e-01
8.695239999999999636e-01
8.614650000000000363e-01
8.638829999999999565e-01
8.743589999999999973e-01
8.800000000000000044e-01
8.824180000000000357e-01
8.743589999999999973e-01
8.703300000000000480e-01
8.743589999999999973e-01
8.671060000000000434e-01
8.598529999999999784e-01
8.380950000000000344e-01
8.356780000000000319e-01
8.566300000000000026e-01
8.872529999999999584e-01
9.065929999999999822e-01
9.130399999999999627e-01
9.170700000000000518e-01
9.170700000000000518e-01
9.009519999999999751e-01
9.001470000000000304e-01
9.017579999999999485e-01
8.953109999999999680e-01
8.937000000000000499e-01
8.977289999999999992e-01
9.041759999999999797e-01
8.969230000000000258e-01
8.937000000000000499e-01
8.937000000000000499e-01
8.945049999999999946e-01
9.114290000000000447e-01
9.202930000000000277e-01
9.259340000000000348e-01
9.315750000000000419e-01
9.299629999999999841e-01
9.283519999999999550e-01
9.138460000000000472e-01
9.082050000000000400e-01
9.025640000000000329e-01
9.243219999999999770e-01
9.299629999999999841e-01
9.235160000000000036e-01
9.146520000000000206e-01
9.138460000000000472e-01
9.082050000000000400e-01
9.227109999999999479e-01
9.436630000000000296e-01
9.517219999999999569e-01
9.452749999999999764e-01
9.331869999999999887e-01
9.082050000000000400e-01
8.808059999999999778e-01
8.735530000000000239e-01
8.880590000000000428e-01
8.783879999999999466e-01
8.735530000000000239e-01
8.695239999999999636e-01
8.727470000000000505e-01
8.679120000000000168e-01
8.800000000000000044e-01
8.888639999999999874e-01
9.057880000000000376e-01
9.178749999999999964e-01
9.307689999999999575e-01
9.605860000000000509e-01
1.001684999999999937e+00
1.039560000000000040e+00
1.045201000000000047e+00
1.015384999999999982e+00
1.001684999999999937e+00
9.831499999999999684e-01
9.750919999999999588e-01
9.638099999999999445e-01
9.267400000000000082e-01
9.227109999999999479e-01
9.194870000000000543e-01
9.049819999999999531e-01
8.775819999999999732e-01
8.550179999999999447e-01
8.429299999999999571e-01
8.421250000000000124e-01
8.405129999999999546e-01
8.316480000000000539e-01
8.413190000000000390e-01
8.582419999999999494e-01
8.832229999999999803e-01
9.041759999999999797e-01
9.106229999999999603e-01
9.364099999999999646e-01
9.605860000000000509e-01
9.976559999999999873e-01
1.008132000000000028e+00
9.887909999999999755e-01
9.815380000000000216e-01
9.662269999999999470e-01
9.380220000000000224e-01
9.243219999999999770e-01
9.009519999999999751e-01
9.130399999999999627e-01
9.186809999999999699e-01
9.194870000000000543e-01
9.122339999999999893e-01
9.887909999999999755e-01
9.863739999999999730e-01
9.549450000000000438e-01
9.154579999999999940e-01
8.832229999999999803e-01
8.662999999999999590e-01
8.703300000000000480e-01
8.928939999999999655e-01
9.106229999999999603e-01
9.339929999999999621e-01
9.323810000000000153e-01
9.162639999999999674e-01
8.953109999999999680e-01
8.775819999999999732e-01
8.832229999999999803e-01
8.920879999999999921e-01
9.549450000000000438e-01
1.017802000000000096e+00
1.003297000000000105e+00
9.694509999999999517e-01
9.404400000000000537e-01
9.879850000000000021e-01
1.041978000000000071e+00
1.092746999999999913e+00
1.085495000000000099e+00
1.047619000000000078e+00
9.775089999999999613e-01
8.985349999999999726e-01
9.130399999999999627e-01
9.944319999999999826e-01
1.021025999999999989e+00
1.016189999999999927e+00
9.420509999999999717e-01
8.292310000000000514e-01
7.494509999999999783e-01
7.663739999999999997e-01
7.792670000000000430e-01
8.018319999999999892e-01
8.453479999999999883e-01
8.864469999999999850e-01
9.299629999999999841e-01
9.912090000000000067e-01
1.052454000000000001e+00
1.083882999999999930e+00
1.112894000000000050e+00
1.098387999999999920e+00
1.048424999999999940e+00
9.968500000000000139e-01
9.339929999999999621e-01
9.049819999999999531e-01
9.428569999999999451e-01
9.887909999999999755e-01
1.011355000000000004e+00
9.767029999999999879e-01
9.194870000000000543e-01
8.937000000000000499e-01
9.339929999999999621e-01
9.630039999999999711e-01
9.613920000000000243e-01
9.331869999999999887e-01
1.020219999999999905e+00
1.036337000000000064e+00
1.004907999999999912e+00
8.364840000000000053e-01
7.357510000000000439e-01
7.301100000000000367e-01
7.961899999999999533e-01
8.767770000000000286e-01
9.331869999999999887e-01
9.299629999999999841e-01
9.396339999999999693e-01
9.315750000000000419e-01
9.605860000000000509e-01
9.847620000000000262e-01
9.452749999999999764e-01
9.339929999999999621e-01
9.267400000000000082e-01
9.557510000000000172e-01
1.021025999999999989e+00
1.083882999999999930e+00
1.046006999999999909e+00
1.003297000000000105e+00
9.444690000000000030e-01
9.428569999999999451e-01
9.678390000000000049e-01
9.589739999999999931e-01
9.380220000000000224e-01
9.057880000000000376e-01
8.703300000000000480e-01
8.808059999999999778e-01
9.533329999999999860e-01
1.100000000000000089e+00
1.123369999999999980e+00
1.040365999999999902e+00
9.130399999999999627e-01
8.953109999999999680e-01
9.243219999999999770e-01
9.404400000000000537e-01
9.396339999999999693e-01
9.791210000000000191e-01
9.920149999999999801e-01
9.694509999999999517e-01
9.227109999999999479e-01
8.888639999999999874e-01
9.315750000000000419e-01
1.008132000000000028e+00
1.015384999999999982e+00
9.984619999999999607e-01
9.476919999999999789e-01
9.323810000000000153e-01
9.509159999999999835e-01
9.968500000000000139e-01
1.030696000000000057e+00
1.008937999999999890e+00
9.895969999999999489e-01
9.944319999999999826e-01
9.694509999999999517e-01
9.484979999999999523e-01
9.468860000000000054e-01
9.742859999999999854e-01
9.984619999999999607e-01
1.015384999999999982e+00
1.007325999999999944e+00
9.734800000000000120e-01
9.356039999999999912e-01
9.178749999999999964e-01
9.323810000000000153e-01
9.517219999999999569e-01
9.855679999999999996e-01
9.863739999999999730e-01
9.863739999999999730e-01
9.887909999999999755e-01
9.944319999999999826e-01
9.654209999999999736e-01
9.541389999999999594e-01
9.468860000000000054e-01
9.476919999999999789e-01
9.533329999999999860e-01
9.460809999999999498e-01
9.501100000000000101e-01
9.686449999999999783e-01
9.638099999999999445e-01
9.525270000000000126e-01
9.476919999999999789e-01
9.557510000000000172e-01
9.549450000000000438e-01
9.573629999999999640e-01
9.589739999999999931e-01
9.565569999999999906e-01
9.307689999999999575e-01
9.364099999999999646e-01
9.396339999999999693e-01
9.372160000000000490e-01
9.404400000000000537e-01
9.323810000000000153e-01
9.356039999999999912e-01
9.283519999999999550e-01
9.364099999999999646e-01
9.331869999999999887e-01
9.259340000000000348e-01
9.267400000000000082e-01
9.090110000000000134e-01
9.138460000000000472e-01
9.106229999999999603e-01
9.065929999999999822e-01
9.082050000000000400e-01
9.082050000000000400e-01
9.170700000000000518e-01
9.210990000000000011e-01
9.114290000000000447e-01
9.025640000000000329e-01
8.945049999999999946e-01
9.025640000000000329e-01
9.033700000000000063e-01
9.049819999999999531e-01
8.896699999999999608e-01
8.953109999999999680e-01
8.937000000000000499e-01
8.856410000000000116e-01
8.848350000000000382e-01
8.856410000000000116e-01
8.880590000000000428e-01
8.840289999999999537e-01
8.800000000000000044e-01
8.848350000000000382e-01
8.912820000000000187e-01
8.880590000000000428e-01
8.816119999999999512e-01
8.816119999999999512e-01
8.832229999999999803e-01
8.840289999999999537e-01
8.791940000000000310e-01
8.791940000000000310e-01
8.743589999999999973e-01
8.727470000000000505e-01
8.743589999999999973e-01
8.646890000000000409e-01
8.679120000000000168e-01
8.727470000000000505e-01
8.695239999999999636e-01
8.727470000000000505e-01
8.606589999999999518e-01
8.630769999999999831e-01
8.622710000000000097e-01
8.662999999999999590e-01
8.622710000000000097e-01
8.582419999999999494e-01
8.517949999999999688e-01
8.501830000000000220e-01
8.413190000000000390e-01
8.461539999999999617e-01
8.477660000000000196e-01
8.485709999999999642e-01
8.526010000000000533e-01
8.550179999999999447e-01
8.558240000000000292e-01
8.477660000000000196e-01
8.485709999999999642e-01
8.630769999999999831e-01
8.461539999999999617e-01
8.405129999999999546e-01
8.364840000000000053e-01
8.364840000000000053e-01
8.163369999999999793e-01
7.881320000000000547e-01
7.800730000000000164e-01
7.792670000000000430e-01
7.607329999999999925e-01
7.486450000000000049e-01
7.405859999999999665e-01
7.397799999999999931e-01
7.550919999999999854e-01
7.792670000000000430e-01
8.131140000000000034e-01
8.421250000000000124e-01
8.654950000000000143e-01
8.856410000000000116e-01
8.864469999999999850e-01
8.816119999999999512e-01
8.904760000000000453e-01
8.896699999999999608e-01
8.840289999999999537e-01
8.840289999999999537e-01
8.791940000000000310e-01
8.743589999999999973e-01
8.711360000000000214e-01
8.646890000000000409e-01
8.638829999999999565e-01
8.526010000000000533e-01
8.437360000000000415e-01
8.445420000000000149e-01
8.389010000000000078e-01
8.123080000000000300e-01
8.042489999999999917e-01
7.953850000000000087e-01
7.712090000000000334e-01
7.462269999999999737e-01
7.317219999999999835e-01
7.284979999999999789e-01
7.438099999999999712e-01
7.357510000000000439e-01
7.446150000000000269e-01
7.639559999999999684e-01
7.776560000000000139e-01
7.921610000000000040e-01
7.986079999999999846e-01
8.139189999999999481e-01
8.171429999999999527e-01
8.243960000000000177e-01
8.187550000000000106e-01
8.227839999999999598e-01
8.018319999999999892e-01
7.937729999999999508e-01
7.784619999999999873e-01
7.768500000000000405e-01
7.736260000000000359e-01
7.792670000000000430e-01
7.849080000000000501e-01
8.034430000000000183e-01
8.155310000000000059e-01
8.106959999999999722e-01
8.106959999999999722e-01
8.066670000000000229e-01
7.816849999999999632e-01
7.470329999999999471e-01
7.252750000000000030e-01
7.107689999999999841e-01
6.946520000000000472e-01
6.994869999999999699e-01
7.027109999999999745e-01
7.156040000000000179e-01
7.131870000000000154e-01
7.188280000000000225e-01
7.244690000000000296e-01
7.405859999999999665e-01
7.671790000000000553e-01
7.865199999999999969e-01
7.986079999999999846e-01
7.816849999999999632e-01
7.969960000000000377e-01
8.131140000000000034e-01
7.784619999999999873e-01
7.760439999999999561e-01
7.792670000000000430e-01
7.712090000000000334e-01
7.663739999999999997e-01
7.293039999999999523e-01
7.172159999999999647e-01
7.196339999999999959e-01
7.260809999999999764e-01
7.357510000000000439e-01
7.486450000000000049e-01
7.462269999999999737e-01
7.462269999999999737e-01
7.720150000000000068e-01
7.607329999999999925e-01
7.567030000000000145e-01
7.470329999999999471e-01
7.373629999999999907e-01
7.446150000000000269e-01
7.550919999999999854e-01
7.526739999999999542e-01
7.341389999999999860e-01
7.446150000000000269e-01
7.341389999999999860e-01
7.051279999999999770e-01
6.527469999999999661e-01
6.430770000000000097e-01
6.656410000000000382e-01
6.342119999999999980e-01
6.124540000000000539e-01
6.479120000000000434e-01
7.365570000000000173e-01
8.018319999999999892e-01
8.147250000000000325e-01
7.792670000000000430e-01
7.470329999999999471e-01
7.131870000000000154e-01
6.825639999999999485e-01
6.543590000000000240e-01
6.551649999999999974e-01
6.543590000000000240e-01
6.559709999999999708e-01
6.043960000000000443e-01
6.495239999999999903e-01
7.228569999999999718e-01
8.098899999999999988e-01
8.808059999999999778e-01
8.985349999999999726e-01
8.808059999999999778e-01
8.219779999999999864e-01
7.631499999999999950e-01
7.035160000000000302e-01
6.825639999999999485e-01
7.075460000000000083e-01
7.462269999999999737e-01
7.768500000000000405e-01
7.284979999999999789e-01
6.519409999999999927e-01
5.939189999999999747e-01
5.955310000000000326e-01
6.640289999999999804e-01
7.397799999999999931e-01
6.761169999999999680e-01
6.027839999999999865e-01
5.084980000000000055e-01
5.455680000000000529e-01
7.228569999999999718e-01
8.397069999999999812e-01
8.671060000000000434e-01
8.808059999999999778e-01
8.187550000000000106e-01
7.567030000000000145e-01
6.753109999999999946e-01
6.841760000000000064e-01
7.462269999999999737e-01
8.050549999999999651e-01
8.203660000000000396e-01
7.276920000000000055e-01
5.431500000000000217e-01
4.150179999999999980e-01
4.150179999999999980e-01
5.745789999999999509e-01
8.445420000000000149e-01
9.855679999999999996e-01
1.004102999999999968e+00
9.186809999999999699e-01
7.558970000000000411e-01
6.245420000000000416e-01
5.415379999999999638e-01
5.649079999999999657e-01
7.542860000000000120e-01
7.937729999999999508e-01
7.615380000000000482e-01
7.349449999999999594e-01
7.752379999999999827e-01
8.139189999999999481e-01
6.954580000000000206e-01
6.052009999999999890e-01
5.415379999999999638e-01
7.309160000000000101e-01
8.276189999999999936e-01
8.542119999999999713e-01
8.711360000000000214e-01
9.017579999999999485e-01
9.138460000000000472e-01
8.671060000000000434e-01
7.550919999999999854e-01
6.745050000000000212e-01
6.640289999999999804e-01
6.600000000000000311e-01
7.083519999999999817e-01
7.131870000000000154e-01
8.195599999999999552e-01
9.815380000000000216e-01
9.992670000000000163e-01
9.307689999999999575e-01
8.654950000000000143e-01
8.477660000000000196e-01
7.824910000000000476e-01
7.752379999999999827e-01
7.236629999999999452e-01
6.632230000000000070e-01
6.608060000000000045e-01
8.364840000000000053e-01
9.388279999999999959e-01
8.638829999999999565e-01
8.340659999999999741e-01
8.961170000000000524e-01
9.573629999999999640e-01
1.006520000000000081e+00
9.799269999999999925e-01
9.219049999999999745e-01
8.735530000000000239e-01
8.203660000000000396e-01
8.074729999999999963e-01
8.582419999999999494e-01
9.098169999999999868e-01
8.832229999999999803e-01
8.171429999999999527e-01
7.655680000000000263e-01
8.517949999999999688e-01
9.412449999999999983e-01
9.251279999999999504e-01
9.686449999999999783e-01
9.928209999999999535e-01
1.018607999999999958e+00
1.026666999999999996e+00
1.004102999999999968e+00
1.001684999999999937e+00
1.005713999999999997e+00
1.002491000000000021e+00
1.023443000000000103e+00
1.046812999999999994e+00
1.041978000000000071e+00
1.053260000000000085e+00
1.064542000000000099e+00
1.065347999999999962e+00
1.067765999999999993e+00
1.068570999999999938e+00
1.079048000000000007e+00
1.084689000000000014e+00
1.089523999999999937e+00
1.103223000000000065e+00
1.101612000000000036e+00
1.119340999999999919e+00
1.125788000000000011e+00
1.131429000000000018e+00
1.160439999999999916e+00
1.172527000000000097e+00
1.170109999999999983e+00
1.170109999999999983e+00
1.185421000000000058e+00
1.191062000000000065e+00
1.199121000000000103e+00
1.212820999999999927e+00
1.210402999999999896e+00
1.220879000000000048e+00
1.227325999999999917e+00
1.224908000000000108e+00
1.220879000000000048e+00
1.223297000000000079e+00
1.227325999999999917e+00
1.229743999999999948e+00
1.241025999999999962e+00
1.242636999999999992e+00
1.241832000000000047e+00
1.242636999999999992e+00
1.245055000000000023e+00
1.237802000000000069e+00
1.245055000000000023e+00
1.249084000000000083e+00
1.235384999999999955e+00
1.239414000000000016e+00
1.242636999999999992e+00
1.244248999999999938e+00
1.234579000000000093e+00
1.240220000000000100e+00
1.242636999999999992e+00
1.239414000000000016e+00
1.233773000000000009e+00
1.238607999999999931e+00
1.236189999999999900e+00
1.240220000000000100e+00
1.242636999999999992e+00
1.236189999999999900e+00
1.227325999999999917e+00
1.227325999999999917e+00
1.224102999999999941e+00
1.224102999999999941e+00
1.223297000000000079e+00
1.228132000000000001e+00
1.228132000000000001e+00
1.221684999999999910e+00
1.220072999999999963e+00
1.221684999999999910e+00
1.224908000000000108e+00
1.230548999999999893e+00
1.232161000000000062e+00
1.241832000000000047e+00
1.247473000000000054e+00
1.244248999999999938e+00
1.245055000000000023e+00
1.233773000000000009e+00
1.231354999999999977e+00
1.226520000000000055e+00
1.216043999999999903e+00
1.199121000000000103e+00
1.196703000000000072e+00
1.180585999999999913e+00
1.175750999999999991e+00
1.185421000000000058e+00
1.195092000000000043e+00
1.190255999999999981e+00
1.191062000000000065e+00
1.194285999999999959e+00
1.198315000000000019e+00
1.209597000000000033e+00
1.208790999999999949e+00
1.202344000000000079e+00
1.195092000000000043e+00
1.182198000000000082e+00
1.174139000000000044e+00
1.162050999999999945e+00
1.152381000000000100e+00
1.158022000000000107e+00
1.174944999999999906e+00
1.174944999999999906e+00
1.176557000000000075e+00
1.169303999999999899e+00
1.162050999999999945e+00
1.157216000000000022e+00
1.150768999999999931e+00
1.170916000000000068e+00
1.172527000000000097e+00
1.171721999999999930e+00
1.154798999999999909e+00
1.146740000000000093e+00
1.129817000000000071e+00
1.140293000000000001e+00
1.124176000000000064e+00
1.113699999999999912e+00
1.109669999999999934e+00
1.097582000000000058e+00
1.105641000000000096e+00
1.112087999999999965e+00
1.094359000000000082e+00
1.089523999999999937e+00
1.085495000000000099e+00
1.093552999999999997e+00
1.090330000000000021e+00
1.089523999999999937e+00
1.079048000000000007e+00
1.091941000000000050e+00
1.097582000000000058e+00
1.118535000000000057e+00
1.129817000000000071e+00
1.135458000000000078e+00
1.141099000000000085e+00
1.131429000000000018e+00
1.112087999999999965e+00
1.091941000000000050e+00
1.072600999999999916e+00
1.049231000000000025e+00
1.051647999999999916e+00
1.049231000000000025e+00
1.048424999999999940e+00
1.075018000000000029e+00
1.108058999999999905e+00
1.093552999999999997e+00
1.079852999999999952e+00
1.062929999999999930e+00
1.058901000000000092e+00
1.048424999999999940e+00
1.050842000000000054e+00
1.083077000000000067e+00
1.096776999999999891e+00
1.090330000000000021e+00
1.111282000000000103e+00
1.133845999999999909e+00
1.136263999999999941e+00
1.123369999999999980e+00
1.079852999999999952e+00
1.057288999999999923e+00
1.026666999999999996e+00
9.871790000000000287e-01
9.638099999999999445e-01
9.541389999999999594e-01
9.839560000000000528e-01
9.895969999999999489e-01
1.000879000000000074e+00
1.023443000000000103e+00
1.062929999999999930e+00
1.072600999999999916e+00
1.047619000000000078e+00
1.014578999999999898e+00
1.019414000000000042e+00
1.012966999999999951e+00
1.005713999999999997e+00
1.024248999999999965e+00
1.047619000000000078e+00
1.062929999999999930e+00
1.066959999999999908e+00
1.054872000000000032e+00
1.072600999999999916e+00
1.070988999999999969e+00
1.038755000000000095e+00
1.008937999999999890e+00
9.887909999999999755e-01
9.912090000000000067e-01
1.000879000000000074e+00
1.018607999999999958e+00
1.027473000000000081e+00
1.082270999999999983e+00
1.124176000000000064e+00
1.100805999999999951e+00
1.062929999999999930e+00
1.036337000000000064e+00
1.029889999999999972e+00
1.025860999999999912e+00
1.024248999999999965e+00
1.005713999999999997e+00
9.726740000000000386e-01
9.372160000000000490e-01
8.928939999999999655e-01
9.017579999999999485e-01
9.073989999999999556e-01
1.019414000000000042e+00
1.090330000000000021e+00
1.086300000000000043e+00
1.094359000000000082e+00
1.127399000000000040e+00
1.109669999999999934e+00
1.068570999999999938e+00
1.043590000000000018e+00
1.006520000000000081e+00
9.807329999999999659e-01
9.944319999999999826e-01
9.839560000000000528e-01
1.033114000000000088e+00
1.145127999999999924e+00
1.226520000000000055e+00
1.180585999999999913e+00
1.121758000000000033e+00
1.070988999999999969e+00
9.098169999999999868e-01
8.260070000000000467e-01
8.348719999999999475e-01
8.961170000000000524e-01
9.533329999999999860e-01
9.750919999999999588e-01
1.064542000000000099e+00
1.055677999999999894e+00
9.992670000000000163e-01
9.235160000000000036e-01
8.461539999999999617e-01
7.986079999999999846e-01
8.316480000000000539e-01
8.775819999999999732e-01
9.799269999999999925e-01
1.059706999999999955e+00
1.128204999999999902e+00
1.170916000000000068e+00
1.164468999999999976e+00
1.082270999999999983e+00
9.605860000000000509e-01
8.727470000000000505e-01
9.057880000000000376e-01
9.533329999999999860e-01
9.984619999999999607e-01
1.039560000000000040e+00
9.694509999999999517e-01
9.194870000000000543e-01
9.396339999999999693e-01
9.960440000000000405e-01
1.038755000000000095e+00
1.062124999999999986e+00
1.024248999999999965e+00
9.468860000000000054e-01
8.735530000000000239e-01
8.284249999999999670e-01
7.929669999999999774e-01
7.792670000000000430e-01
8.284249999999999670e-01
9.146520000000000206e-01
1.139486999999999917e+00
1.203956000000000026e+00
1.052454000000000001e+00
8.896699999999999608e-01
8.227839999999999598e-01
8.050549999999999651e-01
8.284249999999999670e-01
9.259340000000000348e-01
9.686449999999999783e-01
9.275459999999999816e-01
9.106229999999999603e-01
8.469600000000000461e-01
8.098899999999999988e-01
8.679120000000000168e-01
8.977289999999999992e-01
9.146520000000000206e-01
8.824180000000000357e-01
8.727470000000000505e-01
9.194870000000000543e-01
9.887909999999999755e-01
1.021025999999999989e+00
9.783150000000000457e-01
8.985349999999999726e-01
8.429299999999999571e-01
8.783879999999999466e-01
9.380220000000000224e-01
9.541389999999999594e-01
9.670330000000000314e-01
9.299629999999999841e-01
8.872529999999999584e-01
8.372889999999999500e-01
8.380950000000000344e-01
8.904760000000000453e-01
8.856410000000000116e-01
8.800000000000000044e-01
9.154579999999999940e-01
9.001470000000000304e-01
8.429299999999999571e-01
8.437360000000000415e-01
8.767770000000000286e-01
9.380220000000000224e-01
9.686449999999999783e-01
9.202930000000000277e-01
8.638829999999999565e-01
8.284249999999999670e-01
8.477660000000000196e-01
8.550179999999999447e-01
8.743589999999999973e-01
8.969230000000000258e-01
9.138460000000000472e-01
9.501100000000000101e-01
1.005713999999999997e+00
9.420509999999999717e-01
9.009519999999999751e-01
8.421250000000000124e-01
8.131140000000000034e-01
8.066670000000000229e-01
8.203660000000000396e-01
8.517949999999999688e-01
8.711360000000000214e-01
8.791940000000000310e-01
8.630769999999999831e-01
8.630769999999999831e-01
8.646890000000000409e-01
8.614650000000000363e-01
8.598529999999999784e-01
8.614650000000000363e-01
8.711360000000000214e-01
8.614650000000000363e-01
8.413190000000000390e-01
8.445420000000000149e-01
8.445420000000000149e-01
8.372889999999999500e-01
8.348719999999999475e-01
8.413190000000000390e-01
8.389010000000000078e-01
8.372889999999999500e-01
8.324540000000000273e-01
8.227839999999999598e-01
8.074729999999999963e-01
8.034430000000000183e-01
8.098899999999999988e-01
8.098899999999999988e-01
7.994139999999999580e-01
7.937729999999999508e-01
7.994139999999999580e-01
8.058610000000000495e-01
8.058610000000000495e-01
7.712090000000000334e-01
7.768500000000000405e-01
7.760439999999999561e-01
7.808789999999999898e-01
7.760439999999999561e-01
7.704029999999999490e-01
7.647620000000000529e-01
7.623440000000000216e-01
7.575089999999999879e-01
7.510620000000000074e-01
7.671790000000000553e-01
7.550919999999999854e-01
7.470329999999999471e-01
7.486450000000000049e-01
7.341389999999999860e-01
7.325270000000000392e-01
7.357510000000000439e-01
7.341389999999999860e-01
7.293039999999999523e-01
7.196339999999999959e-01
7.123810000000000420e-01
7.156040000000000179e-01
7.139929999999999888e-01
7.107689999999999841e-01
6.954580000000000206e-01
6.914289999999999603e-01
6.898170000000000135e-01
6.922340000000000160e-01
6.938459999999999628e-01
6.970699999999999674e-01
7.019050000000000011e-01
6.849819999999999798e-01
6.817579999999999751e-01
6.890110000000000401e-01
7.010990000000000277e-01
6.930399999999999894e-01
6.833700000000000330e-01
6.769230000000000524e-01
6.841760000000000064e-01
6.777290000000000258e-01
6.777290000000000258e-01
6.761169999999999680e-01
6.785349999999999993e-01
6.801469999999999461e-01
6.817579999999999751e-01
6.817579999999999751e-01
6.841760000000000064e-01
6.857879999999999532e-01
6.720880000000000187e-01
6.801469999999999461e-01
6.809520000000000017e-01
6.857879999999999532e-01
6.938459999999999628e-01
6.954580000000000206e-01
7.027109999999999745e-01
6.873989999999999823e-01
6.873989999999999823e-01
6.849819999999999798e-01
6.978750000000000231e-01
6.922340000000000160e-01
7.019050000000000011e-01
6.970699999999999674e-01
6.994869999999999699e-01
6.970699999999999674e-01
6.930399999999999894e-01
6.962639999999999940e-01
7.027109999999999745e-01
7.002930000000000543e-01
7.002930000000000543e-01
6.970699999999999674e-01
6.849819999999999798e-01
6.857879999999999532e-01
6.954580000000000206e-01
6.922340000000000160e-01
6.841760000000000064e-01
6.745050000000000212e-01
6.817579999999999751e-01
6.761169999999999680e-01
6.736999999999999655e-01
6.640289999999999804e-01
7.051279999999999770e-01
7.430039999999999978e-01
7.816849999999999632e-01
7.897440000000000015e-01
8.042489999999999917e-01
7.800730000000000164e-01
7.647620000000000529e-01
7.542860000000000120e-01
7.478390000000000315e-01
7.373629999999999907e-01
7.260809999999999764e-01
7.075460000000000083e-01
6.801469999999999461e-01
6.624179999999999513e-01
6.503299999999999637e-01
6.398530000000000051e-01
6.479120000000000434e-01
6.583879999999999733e-01
6.559709999999999708e-01
6.583879999999999733e-01
6.591939999999999467e-01
6.696699999999999875e-01
6.753109999999999946e-01
6.922340000000000160e-01
6.930399999999999894e-01
6.882049999999999557e-01
6.761169999999999680e-01
6.728939999999999921e-01
6.696699999999999875e-01
6.769230000000000524e-01
6.712820000000000453e-01
6.624179999999999513e-01
6.575819999999999999e-01
6.575819999999999999e-01
6.600000000000000311e-01
6.688640000000000141e-01
6.873989999999999823e-01
6.793409999999999727e-01
6.656410000000000382e-01
6.317949999999999955e-01
6.269599999999999618e-01
6.374360000000000026e-01
6.454950000000000410e-01
6.479120000000000434e-01
6.543590000000000240e-01
6.720880000000000187e-01
6.882049999999999557e-01
6.962639999999999940e-01
7.164099999999999913e-01
7.188280000000000225e-01
7.107689999999999841e-01
7.131870000000000154e-01
7.228569999999999718e-01
7.309160000000000101e-01
7.421980000000000244e-01
7.293039999999999523e-01
7.059339999999999504e-01
6.704759999999999609e-01
6.374360000000000026e-01
6.277660000000000462e-01
6.245420000000000416e-01
6.076190000000000202e-01
6.027839999999999865e-01
6.068130000000000468e-01
6.269599999999999618e-01
6.406589999999999785e-01
6.696699999999999875e-01
6.946520000000000472e-01
7.188280000000000225e-01
7.421980000000000244e-01
7.470329999999999471e-01
7.623440000000000216e-01
7.325270000000000392e-01
7.164099999999999913e-01
7.010990000000000277e-01
6.487180000000000168e-01
6.180949999999999500e-01
6.148719999999999741e-01
6.229299999999999837e-01
6.156779999999999475e-01
6.285709999999999908e-01
6.785349999999999993e-01
7.035160000000000302e-01
7.099630000000000107e-01
7.180220000000000491e-01
7.188280000000000225e-01
7.284979999999999789e-01
7.260809999999999764e-01
7.276920000000000055e-01
7.293039999999999523e-01
7.284979999999999789e-01
7.035160000000000302e-01
6.704759999999999609e-01
6.575819999999999999e-01
6.471059999999999590e-01
6.390479999999999494e-01
6.608060000000000045e-01
6.591939999999999467e-01
6.519409999999999927e-01
6.326009999999999689e-01
6.334070000000000533e-01
6.366300000000000292e-01
6.736999999999999655e-01
7.212450000000000250e-01
7.494509999999999783e-01
7.615380000000000482e-01
7.567030000000000145e-01
6.946520000000000472e-01
6.471059999999999590e-01
6.116479999999999695e-01
6.148719999999999741e-01
6.809520000000000017e-01
7.575089999999999879e-01
7.969960000000000377e-01
7.808789999999999898e-01
7.099630000000000107e-01
6.761169999999999680e-01
6.519409999999999927e-01
6.438829999999999831e-01
6.519409999999999927e-01
6.769230000000000524e-01
6.986809999999999965e-01
6.970699999999999674e-01
6.914289999999999603e-01
6.761169999999999680e-01
6.334070000000000533e-01
5.866670000000000496e-01
5.375090000000000146e-01
4.996340000000000225e-01
5.689380000000000548e-01
6.857879999999999532e-01
7.824910000000000476e-01
8.292310000000000514e-01
8.380950000000000344e-01
8.252009999999999623e-01
7.865199999999999969e-01
7.558970000000000411e-01
7.293039999999999523e-01
7.027109999999999745e-01
6.914289999999999603e-01
6.777290000000000258e-01
6.591939999999999467e-01
6.487180000000000168e-01
6.680589999999999584e-01
7.115749999999999575e-01
7.430039999999999978e-01
7.478390000000000315e-01
7.284979999999999789e-01
6.962639999999999940e-01
6.696699999999999875e-01
6.398530000000000051e-01
5.979489999999999528e-01
6.245420000000000416e-01
6.527469999999999661e-01
6.793409999999999727e-01
7.317219999999999835e-01
7.365570000000000173e-01
7.381680000000000463e-01
7.405859999999999665e-01
7.228569999999999718e-01
7.413920000000000510e-01
7.534800000000000386e-01
7.671790000000000553e-01
7.671790000000000553e-01
7.583149999999999613e-01
7.599270000000000191e-01
7.567030000000000145e-01
7.486450000000000049e-01
7.389740000000000197e-01
7.301100000000000367e-01
7.236629999999999452e-01
7.156040000000000179e-01
7.002930000000000543e-01
6.938459999999999628e-01
6.938459999999999628e-01
7.196339999999999959e-01
7.115749999999999575e-01
7.502560000000000340e-01
7.357510000000000439e-01
7.470329999999999471e-01
7.389740000000000197e-01
7.357510000000000439e-01
7.204399999999999693e-01
7.268860000000000321e-01
7.317219999999999835e-01
7.373629999999999907e-01
7.607329999999999925e-01
7.502560000000000340e-01
7.494509999999999783e-01
7.389740000000000197e-01
7.172159999999999647e-01
7.131870000000000154e-01
7.236629999999999452e-01
7.534800000000000386e-01
7.687910000000000021e-01
7.349449999999999594e-01
6.986809999999999965e-01
6.938459999999999628e-01
7.397799999999999931e-01
7.994139999999999580e-01
7.905489999999999462e-01
7.776560000000000139e-01
7.663739999999999997e-01
7.575089999999999879e-01
7.591210000000000457e-01
7.599270000000000191e-01
7.494509999999999783e-01
7.389740000000000197e-01
7.397799999999999931e-01
7.744320000000000093e-01
8.042489999999999917e-01
8.042489999999999917e-01
8.002200000000000424e-01
8.018319999999999892e-01
7.929669999999999774e-01
7.945790000000000353e-01
7.978020000000000111e-01
7.905489999999999462e-01
7.752379999999999827e-01
7.607329999999999925e-01
7.969960000000000377e-01
8.066670000000000229e-01
8.147250000000000325e-01
8.348719999999999475e-01
8.421250000000000124e-01
8.461539999999999617e-01
8.453479999999999883e-01
8.429299999999999571e-01
8.445420000000000149e-01
8.389010000000000078e-01
8.493770000000000486e-01
8.397069999999999812e-01
8.477660000000000196e-01
8.534070000000000267e-01
8.679120000000000168e-01
8.743589999999999973e-01
8.654950000000000143e-01
8.606589999999999518e-01
8.743589999999999973e-01
8.872529999999999584e-01
8.695239999999999636e-01
8.751649999999999707e-01
8.840289999999999537e-01
8.993409999999999460e-01
8.872529999999999584e-01
8.912820000000000187e-01
8.977289999999999992e-01
9.025640000000000329e-01
8.937000000000000499e-01
8.856410000000000116e-01
8.896699999999999608e-01
9.057880000000000376e-01
9.122339999999999893e-01
9.122339999999999893e-01
9.146520000000000206e-01
9.219049999999999745e-01
9.210990000000000011e-01
9.243219999999999770e-01
9.243219999999999770e-01
9.227109999999999479e-01
9.267400000000000082e-01
9.291580000000000394e-01
9.291580000000000394e-01
9.243219999999999770e-01
9.251279999999999504e-01
9.347990000000000466e-01
9.372160000000000490e-01
9.428569999999999451e-01
9.484979999999999523e-01
9.541389999999999594e-01
9.589739999999999931e-01
9.581680000000000197e-01
9.613920000000000243e-01
9.670330000000000314e-01
9.638099999999999445e-01
9.565569999999999906e-01
9.501100000000000101e-01
9.476919999999999789e-01
9.291580000000000394e-01
9.275459999999999816e-01
9.122339999999999893e-01
9.033700000000000063e-01
8.832229999999999803e-01
8.904760000000000453e-01
8.937000000000000499e-01
9.073989999999999556e-01
9.033700000000000063e-01
9.082050000000000400e-01
9.162639999999999674e-01
9.178749999999999964e-01
9.106229999999999603e-01
9.194870000000000543e-01
9.194870000000000543e-01
9.420509999999999717e-01
9.557510000000000172e-01
9.581680000000000197e-01
9.517219999999999569e-01
9.468860000000000054e-01
9.468860000000000054e-01
9.404400000000000537e-01
9.275459999999999816e-01
9.202930000000000277e-01
9.202930000000000277e-01
9.243219999999999770e-01
9.364099999999999646e-01
9.420509999999999717e-01
9.436630000000000296e-01
9.372160000000000490e-01
9.299629999999999841e-01
9.452749999999999764e-01
9.388279999999999959e-01
9.412449999999999983e-01
9.396339999999999693e-01
9.307689999999999575e-01
9.194870000000000543e-01
9.098169999999999868e-01
9.146520000000000206e-01
9.073989999999999556e-01
8.840289999999999537e-01
8.808059999999999778e-01
8.791940000000000310e-01
8.977289999999999992e-01
9.114290000000000447e-01
9.235160000000000036e-01
9.283519999999999550e-01
9.291580000000000394e-01
9.388279999999999959e-01
9.517219999999999569e-01
9.597799999999999665e-01
9.654209999999999736e-01
9.484979999999999523e-01
9.484979999999999523e-01
9.452749999999999764e-01
9.315750000000000419e-01
9.162639999999999674e-01
9.138460000000000472e-01
9.098169999999999868e-01
9.057880000000000376e-01
8.961170000000000524e-01
8.945049999999999946e-01
8.880590000000000428e-01
8.928939999999999655e-01
8.888639999999999874e-01
8.969230000000000258e-01
8.945049999999999946e-01
8.864469999999999850e-01
8.864469999999999850e-01
9.146520000000000206e-01
9.146520000000000206e-01
9.090110000000000134e-01
9.025640000000000329e-01
8.945049999999999946e-01
8.953109999999999680e-01
8.969230000000000258e-01
9.106229999999999603e-01
9.243219999999999770e-01
9.178749999999999964e-01
9.372160000000000490e-01
9.307689999999999575e-01
9.323810000000000153e-01
9.452749999999999764e-01
9.436630000000000296e-01
9.227109999999999479e-01
9.073989999999999556e-01
8.969230000000000258e-01
8.920879999999999921e-01
8.937000000000000499e-01
8.727470000000000505e-01
8.775819999999999732e-01
8.638829999999999565e-01
8.824180000000000357e-01
8.920879999999999921e-01
8.953109999999999680e-01
8.969230000000000258e-01
9.017579999999999485e-01
8.969230000000000258e-01
8.969230000000000258e-01
8.961170000000000524e-01
9.009519999999999751e-01
9.106229999999999603e-01
9.098169999999999868e-01
8.928939999999999655e-01
8.751649999999999707e-01
8.953109999999999680e-01
9.049819999999999531e-01
9.162639999999999674e-01
9.549450000000000438e-01
1.000879000000000074e+00
1.010548999999999920e+00
1.002491000000000021e+00
9.726740000000000386e-01
9.517219999999999569e-01
9.170700000000000518e-01
8.775819999999999732e-01
8.316480000000000539e-01
7.961899999999999533e-01
7.969960000000000377e-01
7.929669999999999774e-01
8.260070000000000467e-01
8.461539999999999617e-01
8.550179999999999447e-01
8.614650000000000363e-01
8.477660000000000196e-01
8.453479999999999883e-01
8.598529999999999784e-01
8.477660000000000196e-01
8.808059999999999778e-01
9.468860000000000054e-01
1.004907999999999912e+00
1.054872000000000032e+00
1.134651999999999994e+00
1.134651999999999994e+00
1.070183000000000106e+00
1.051647999999999916e+00
1.024248999999999965e+00
9.299629999999999841e-01
8.816119999999999512e-01
8.816119999999999512e-01
8.590480000000000338e-01
8.453479999999999883e-01
8.243960000000000177e-01
7.978020000000000111e-01
8.775819999999999732e-01
1.047619000000000078e+00
1.090330000000000021e+00
1.040365999999999902e+00
9.678390000000000049e-01
9.130399999999999627e-01
8.429299999999999571e-01
7.502560000000000340e-01
7.800730000000000164e-01
8.896699999999999608e-01
1.002491000000000021e+00
1.004907999999999912e+00
9.887909999999999755e-01
9.871790000000000287e-01
9.388279999999999959e-01
8.808059999999999778e-01
9.291580000000000394e-01
9.758970000000000145e-01
9.968500000000000139e-01
1.006520000000000081e+00
9.573629999999999640e-01
9.275459999999999816e-01
8.711360000000000214e-01
8.042489999999999917e-01
7.381680000000000463e-01
7.107689999999999841e-01
7.043220000000000036e-01
7.333330000000000126e-01
8.550179999999999447e-01
9.291580000000000394e-01
9.686449999999999783e-01
9.613920000000000243e-01
9.678390000000000049e-01
9.565569999999999906e-01
9.428569999999999451e-01
9.025640000000000329e-01
8.550179999999999447e-01
8.018319999999999892e-01
8.074729999999999963e-01
8.534070000000000267e-01
8.654950000000000143e-01
8.872529999999999584e-01
9.372160000000000490e-01
9.758970000000000145e-01
9.356039999999999912e-01
8.928939999999999655e-01
8.945049999999999946e-01
9.219049999999999745e-01
9.839560000000000528e-01
1.039560000000000040e+00
9.670330000000000314e-01
8.791940000000000310e-01
8.405129999999999546e-01
8.034430000000000183e-01
8.082780000000000520e-01
8.566300000000000026e-01
9.509159999999999835e-01
1.039560000000000040e+00
9.767029999999999879e-01
9.049819999999999531e-01
7.381680000000000463e-01
6.309890000000000221e-01
6.495239999999999903e-01
7.486450000000000049e-01
7.945790000000000353e-01
8.421250000000000124e-01
8.816119999999999512e-01
8.993409999999999460e-01
8.856410000000000116e-01
9.049819999999999531e-01
9.863739999999999730e-01
1.054065999999999947e+00
1.004907999999999912e+00
9.106229999999999603e-01
7.720150000000000068e-01
7.075460000000000083e-01
7.430039999999999978e-01
8.598529999999999784e-01
9.549450000000000438e-01
9.581680000000000197e-01
9.009519999999999751e-01
8.010260000000000158e-01
7.518679999999999808e-01
7.599270000000000191e-01
7.937729999999999508e-01
8.235900000000000443e-01
8.703300000000000480e-01
9.009519999999999751e-01
9.251279999999999504e-01
8.912820000000000187e-01
8.558240000000000292e-01
7.865199999999999969e-01
7.897440000000000015e-01
8.380950000000000344e-01
9.025640000000000329e-01
9.275459999999999816e-01
9.017579999999999485e-01
8.445420000000000149e-01
8.316480000000000539e-01
8.356780000000000319e-01
8.389010000000000078e-01
8.316480000000000539e-01
8.646890000000000409e-01
8.993409999999999460e-01
8.695239999999999636e-01
8.372889999999999500e-01
8.147250000000000325e-01
8.195599999999999552e-01
8.380950000000000344e-01
8.711360000000000214e-01
9.001470000000000304e-01
8.840289999999999537e-01
8.340659999999999741e-01
8.243960000000000177e-01
8.429299999999999571e-01
8.703300000000000480e-01
9.146520000000000206e-01
9.283519999999999550e-01
9.033700000000000063e-01
8.679120000000000168e-01
8.469600000000000461e-01
8.308419999999999694e-01
8.268130000000000202e-01
8.187550000000000106e-01
8.163369999999999793e-01
8.268130000000000202e-01
8.614650000000000363e-01
9.154579999999999940e-01
9.541389999999999594e-01
9.686449999999999783e-01
9.372160000000000490e-01
9.315750000000000419e-01
9.122339999999999893e-01
9.194870000000000543e-01
9.001470000000000304e-01
8.808059999999999778e-01
8.767770000000000286e-01
8.751649999999999707e-01
8.808059999999999778e-01
8.977289999999999992e-01
8.356780000000000319e-01
7.929669999999999774e-01
7.945790000000000353e-01
7.776560000000000139e-01
7.808789999999999898e-01
7.978020000000000111e-01
8.187550000000000106e-01
8.276189999999999936e-01
8.348719999999999475e-01
8.308419999999999694e-01
8.380950000000000344e-01
8.445420000000000149e-01
8.348719999999999475e-01
8.397069999999999812e-01
8.453479999999999883e-01
8.526010000000000533e-01
8.550179999999999447e-01
8.582419999999999494e-01
8.590480000000000338e-01
8.598529999999999784e-01
8.517949999999999688e-01
8.598529999999999784e-01
8.517949999999999688e-01
8.429299999999999571e-01
8.485709999999999642e-01
8.276189999999999936e-01
